# Pulseq sequence file
# Created by MATLAB mr toolbox

# Created for Pulseq-CEST
# https://pulseq-cest.github.io/
# Created by: Kai Herz
# Created at: 07-Oct-2022 15:27:20

[VERSION]
major 1
minor 3
revision 1

[DEFINITIONS]
B0 3 
B1cwpe 3.7 
M0_offset -300 
Trec 3 
Trec_M0 12 
Tsat 0.005 
n_pulses 1 
num_meas 82 
offsets_ppm -300 -2 -1.95 -1.9 -1.85 -1.8 -1.75 -1.7 -1.65 -1.6 -1.55 -1.5 -1.45 -1.4 -1.35 -1.3 -1.25 -1.2 -1.15 -1.1 -1.05 -1 -0.95 -0.9 -0.85 -0.8 -0.75 -0.7 -0.65 -0.6 -0.55 -0.5 -0.45 -0.4 -0.35 -0.3 -0.25 -0.2 -0.15 -0.1 -0.05 0 0.05 0.1 0.15 0.2 0.25 0.3 0.35 0.4 0.45 0.5 0.55 0.6 0.65 0.7 0.75 0.8 0.85 0.9 0.95 1 1.05 1.1 1.15 1.2 1.25 1.3 1.35 1.4 1.45 1.5 1.55 1.6 1.65 1.7 1.75 1.8 1.85 1.9 1.95 2 
seq_id_string case_4_create_seq 
tp 0.005 

# Format of blocks:
#  #  D RF  GX  GY  GZ ADC EXT
[BLOCKS]
  1  1  0   0   0   0  0  0
  2  0  1   0   0   0  0  0
  3  0  0   1   1   1  0  0
  4  0  0   0   0   0  1  0
  5  2  0   0   0   0  0  0
  6  0  2   0   0   0  0  0
  7  0  0   1   1   1  0  0
  8  0  0   0   0   0  1  0
  9  2  0   0   0   0  0  0
 10  0  3   0   0   0  0  0
 11  0  0   1   1   1  0  0
 12  0  0   0   0   0  1  0
 13  2  0   0   0   0  0  0
 14  0  4   0   0   0  0  0
 15  0  0   1   1   1  0  0
 16  0  0   0   0   0  1  0
 17  2  0   0   0   0  0  0
 18  0  5   0   0   0  0  0
 19  0  0   1   1   1  0  0
 20  0  0   0   0   0  1  0
 21  2  0   0   0   0  0  0
 22  0  6   0   0   0  0  0
 23  0  0   1   1   1  0  0
 24  0  0   0   0   0  1  0
 25  2  0   0   0   0  0  0
 26  0  7   0   0   0  0  0
 27  0  0   1   1   1  0  0
 28  0  0   0   0   0  1  0
 29  2  0   0   0   0  0  0
 30  0  8   0   0   0  0  0
 31  0  0   1   1   1  0  0
 32  0  0   0   0   0  1  0
 33  2  0   0   0   0  0  0
 34  0  9   0   0   0  0  0
 35  0  0   1   1   1  0  0
 36  0  0   0   0   0  1  0
 37  2  0   0   0   0  0  0
 38  0 10   0   0   0  0  0
 39  0  0   1   1   1  0  0
 40  0  0   0   0   0  1  0
 41  2  0   0   0   0  0  0
 42  0 11   0   0   0  0  0
 43  0  0   1   1   1  0  0
 44  0  0   0   0   0  1  0
 45  2  0   0   0   0  0  0
 46  0 12   0   0   0  0  0
 47  0  0   1   1   1  0  0
 48  0  0   0   0   0  1  0
 49  2  0   0   0   0  0  0
 50  0 13   0   0   0  0  0
 51  0  0   1   1   1  0  0
 52  0  0   0   0   0  1  0
 53  2  0   0   0   0  0  0
 54  0 14   0   0   0  0  0
 55  0  0   1   1   1  0  0
 56  0  0   0   0   0  1  0
 57  2  0   0   0   0  0  0
 58  0 15   0   0   0  0  0
 59  0  0   1   1   1  0  0
 60  0  0   0   0   0  1  0
 61  2  0   0   0   0  0  0
 62  0 16   0   0   0  0  0
 63  0  0   1   1   1  0  0
 64  0  0   0   0   0  1  0
 65  2  0   0   0   0  0  0
 66  0 17   0   0   0  0  0
 67  0  0   1   1   1  0  0
 68  0  0   0   0   0  1  0
 69  2  0   0   0   0  0  0
 70  0 18   0   0   0  0  0
 71  0  0   1   1   1  0  0
 72  0  0   0   0   0  1  0
 73  2  0   0   0   0  0  0
 74  0 19   0   0   0  0  0
 75  0  0   1   1   1  0  0
 76  0  0   0   0   0  1  0
 77  2  0   0   0   0  0  0
 78  0 20   0   0   0  0  0
 79  0  0   1   1   1  0  0
 80  0  0   0   0   0  1  0
 81  2  0   0   0   0  0  0
 82  0 21   0   0   0  0  0
 83  0  0   1   1   1  0  0
 84  0  0   0   0   0  1  0
 85  2  0   0   0   0  0  0
 86  0 22   0   0   0  0  0
 87  0  0   1   1   1  0  0
 88  0  0   0   0   0  1  0
 89  2  0   0   0   0  0  0
 90  0 23   0   0   0  0  0
 91  0  0   1   1   1  0  0
 92  0  0   0   0   0  1  0
 93  2  0   0   0   0  0  0
 94  0 24   0   0   0  0  0
 95  0  0   1   1   1  0  0
 96  0  0   0   0   0  1  0
 97  2  0   0   0   0  0  0
 98  0 25   0   0   0  0  0
 99  0  0   1   1   1  0  0
100  0  0   0   0   0  1  0
101  2  0   0   0   0  0  0
102  0 26   0   0   0  0  0
103  0  0   1   1   1  0  0
104  0  0   0   0   0  1  0
105  2  0   0   0   0  0  0
106  0 27   0   0   0  0  0
107  0  0   1   1   1  0  0
108  0  0   0   0   0  1  0
109  2  0   0   0   0  0  0
110  0 28   0   0   0  0  0
111  0  0   1   1   1  0  0
112  0  0   0   0   0  1  0
113  2  0   0   0   0  0  0
114  0 29   0   0   0  0  0
115  0  0   1   1   1  0  0
116  0  0   0   0   0  1  0
117  2  0   0   0   0  0  0
118  0 30   0   0   0  0  0
119  0  0   1   1   1  0  0
120  0  0   0   0   0  1  0
121  2  0   0   0   0  0  0
122  0 31   0   0   0  0  0
123  0  0   1   1   1  0  0
124  0  0   0   0   0  1  0
125  2  0   0   0   0  0  0
126  0 32   0   0   0  0  0
127  0  0   1   1   1  0  0
128  0  0   0   0   0  1  0
129  2  0   0   0   0  0  0
130  0 33   0   0   0  0  0
131  0  0   1   1   1  0  0
132  0  0   0   0   0  1  0
133  2  0   0   0   0  0  0
134  0 34   0   0   0  0  0
135  0  0   1   1   1  0  0
136  0  0   0   0   0  1  0
137  2  0   0   0   0  0  0
138  0 35   0   0   0  0  0
139  0  0   1   1   1  0  0
140  0  0   0   0   0  1  0
141  2  0   0   0   0  0  0
142  0 36   0   0   0  0  0
143  0  0   1   1   1  0  0
144  0  0   0   0   0  1  0
145  2  0   0   0   0  0  0
146  0 37   0   0   0  0  0
147  0  0   1   1   1  0  0
148  0  0   0   0   0  1  0
149  2  0   0   0   0  0  0
150  0 38   0   0   0  0  0
151  0  0   1   1   1  0  0
152  0  0   0   0   0  1  0
153  2  0   0   0   0  0  0
154  0 39   0   0   0  0  0
155  0  0   1   1   1  0  0
156  0  0   0   0   0  1  0
157  2  0   0   0   0  0  0
158  0 40   0   0   0  0  0
159  0  0   1   1   1  0  0
160  0  0   0   0   0  1  0
161  2  0   0   0   0  0  0
162  0 41   0   0   0  0  0
163  0  0   1   1   1  0  0
164  0  0   0   0   0  1  0
165  2  0   0   0   0  0  0
166  0 42   0   0   0  0  0
167  0  0   1   1   1  0  0
168  0  0   0   0   0  1  0
169  2  0   0   0   0  0  0
170  0 43   0   0   0  0  0
171  0  0   1   1   1  0  0
172  0  0   0   0   0  1  0
173  2  0   0   0   0  0  0
174  0 44   0   0   0  0  0
175  0  0   1   1   1  0  0
176  0  0   0   0   0  1  0
177  2  0   0   0   0  0  0
178  0 45   0   0   0  0  0
179  0  0   1   1   1  0  0
180  0  0   0   0   0  1  0
181  2  0   0   0   0  0  0
182  0 46   0   0   0  0  0
183  0  0   1   1   1  0  0
184  0  0   0   0   0  1  0
185  2  0   0   0   0  0  0
186  0 47   0   0   0  0  0
187  0  0   1   1   1  0  0
188  0  0   0   0   0  1  0
189  2  0   0   0   0  0  0
190  0 48   0   0   0  0  0
191  0  0   1   1   1  0  0
192  0  0   0   0   0  1  0
193  2  0   0   0   0  0  0
194  0 49   0   0   0  0  0
195  0  0   1   1   1  0  0
196  0  0   0   0   0  1  0
197  2  0   0   0   0  0  0
198  0 50   0   0   0  0  0
199  0  0   1   1   1  0  0
200  0  0   0   0   0  1  0
201  2  0   0   0   0  0  0
202  0 51   0   0   0  0  0
203  0  0   1   1   1  0  0
204  0  0   0   0   0  1  0
205  2  0   0   0   0  0  0
206  0 52   0   0   0  0  0
207  0  0   1   1   1  0  0
208  0  0   0   0   0  1  0
209  2  0   0   0   0  0  0
210  0 53   0   0   0  0  0
211  0  0   1   1   1  0  0
212  0  0   0   0   0  1  0
213  2  0   0   0   0  0  0
214  0 54   0   0   0  0  0
215  0  0   1   1   1  0  0
216  0  0   0   0   0  1  0
217  2  0   0   0   0  0  0
218  0 55   0   0   0  0  0
219  0  0   1   1   1  0  0
220  0  0   0   0   0  1  0
221  2  0   0   0   0  0  0
222  0 56   0   0   0  0  0
223  0  0   1   1   1  0  0
224  0  0   0   0   0  1  0
225  2  0   0   0   0  0  0
226  0 57   0   0   0  0  0
227  0  0   1   1   1  0  0
228  0  0   0   0   0  1  0
229  2  0   0   0   0  0  0
230  0 58   0   0   0  0  0
231  0  0   1   1   1  0  0
232  0  0   0   0   0  1  0
233  2  0   0   0   0  0  0
234  0 59   0   0   0  0  0
235  0  0   1   1   1  0  0
236  0  0   0   0   0  1  0
237  2  0   0   0   0  0  0
238  0 60   0   0   0  0  0
239  0  0   1   1   1  0  0
240  0  0   0   0   0  1  0
241  2  0   0   0   0  0  0
242  0 61   0   0   0  0  0
243  0  0   1   1   1  0  0
244  0  0   0   0   0  1  0
245  2  0   0   0   0  0  0
246  0 62   0   0   0  0  0
247  0  0   1   1   1  0  0
248  0  0   0   0   0  1  0
249  2  0   0   0   0  0  0
250  0 63   0   0   0  0  0
251  0  0   1   1   1  0  0
252  0  0   0   0   0  1  0
253  2  0   0   0   0  0  0
254  0 64   0   0   0  0  0
255  0  0   1   1   1  0  0
256  0  0   0   0   0  1  0
257  2  0   0   0   0  0  0
258  0 65   0   0   0  0  0
259  0  0   1   1   1  0  0
260  0  0   0   0   0  1  0
261  2  0   0   0   0  0  0
262  0 66   0   0   0  0  0
263  0  0   1   1   1  0  0
264  0  0   0   0   0  1  0
265  2  0   0   0   0  0  0
266  0 67   0   0   0  0  0
267  0  0   1   1   1  0  0
268  0  0   0   0   0  1  0
269  2  0   0   0   0  0  0
270  0 68   0   0   0  0  0
271  0  0   1   1   1  0  0
272  0  0   0   0   0  1  0
273  2  0   0   0   0  0  0
274  0 69   0   0   0  0  0
275  0  0   1   1   1  0  0
276  0  0   0   0   0  1  0
277  2  0   0   0   0  0  0
278  0 70   0   0   0  0  0
279  0  0   1   1   1  0  0
280  0  0   0   0   0  1  0
281  2  0   0   0   0  0  0
282  0 71   0   0   0  0  0
283  0  0   1   1   1  0  0
284  0  0   0   0   0  1  0
285  2  0   0   0   0  0  0
286  0 72   0   0   0  0  0
287  0  0   1   1   1  0  0
288  0  0   0   0   0  1  0
289  2  0   0   0   0  0  0
290  0 73   0   0   0  0  0
291  0  0   1   1   1  0  0
292  0  0   0   0   0  1  0
293  2  0   0   0   0  0  0
294  0 74   0   0   0  0  0
295  0  0   1   1   1  0  0
296  0  0   0   0   0  1  0
297  2  0   0   0   0  0  0
298  0 75   0   0   0  0  0
299  0  0   1   1   1  0  0
300  0  0   0   0   0  1  0
301  2  0   0   0   0  0  0
302  0 76   0   0   0  0  0
303  0  0   1   1   1  0  0
304  0  0   0   0   0  1  0
305  2  0   0   0   0  0  0
306  0 77   0   0   0  0  0
307  0  0   1   1   1  0  0
308  0  0   0   0   0  1  0
309  2  0   0   0   0  0  0
310  0 78   0   0   0  0  0
311  0  0   1   1   1  0  0
312  0  0   0   0   0  1  0
313  2  0   0   0   0  0  0
314  0 79   0   0   0  0  0
315  0  0   1   1   1  0  0
316  0  0   0   0   0  1  0
317  2  0   0   0   0  0  0
318  0 80   0   0   0  0  0
319  0  0   1   1   1  0  0
320  0  0   0   0   0  1  0
321  2  0   0   0   0  0  0
322  0 81   0   0   0  0  0
323  0  0   1   1   1  0  0
324  0  0   0   0   0  1  0
325  2  0   0   0   0  0  0
326  0 82   0   0   0  0  0
327  0  0   1   1   1  0  0
328  0  0   0   0   0  1  0

# Format of RF events:
# id amplitude mag_id phase_id delay freq phase
# ..        Hz   ....     ....    us   Hz   rad
[RF]
1      157.533 1 2 100 -38318.8 0
2      157.533 1 2 100 -255.458 0
3      157.533 1 2 100 -249.072 0
4      157.533 1 2 100 -242.685 0
5      157.533 1 2 100 -236.299 0
6      157.533 1 2 100 -229.913 0
7      157.533 1 2 100 -223.526 0
8      157.533 1 2 100 -217.14 0
9      157.533 1 2 100 -210.753 0
10      157.533 1 2 100 -204.367 0
11      157.533 1 2 100 -197.98 0
12      157.533 1 2 100 -191.594 0
13      157.533 1 2 100 -185.207 0
14      157.533 1 2 100 -178.821 0
15      157.533 1 2 100 -172.434 0
16      157.533 1 2 100 -166.048 0
17      157.533 1 2 100 -159.661 0
18      157.533 1 2 100 -153.275 0
19      157.533 1 2 100 -146.889 0
20      157.533 1 2 100 -140.502 0
21      157.533 1 2 100 -134.116 0
22      157.533 1 2 100 -127.729 0
23      157.533 1 2 100 -121.343 0
24      157.533 1 2 100 -114.956 0
25      157.533 1 2 100 -108.57 0
26      157.533 1 2 100 -102.183 0
27      157.533 1 2 100 -95.7969 0
28      157.533 1 2 100 -89.4104 0
29      157.533 1 2 100 -83.024 0
30      157.533 1 2 100 -76.6375 0
31      157.533 1 2 100 -70.2511 0
32      157.533 1 2 100 -63.8646 0
33      157.533 1 2 100 -57.4781 0
34      157.533 1 2 100 -51.0917 0
35      157.533 1 2 100 -44.7052 0
36      157.533 1 2 100 -38.3188 0
37      157.533 1 2 100 -31.9323 0
38      157.533 1 2 100 -25.5458 0
39      157.533 1 2 100 -19.1594 0
40      157.533 1 2 100 -12.7729 0
41      157.533 1 2 100 -6.38646 0
42      157.533 1 2 100 0 0
43      157.533 1 2 100 6.38646 0
44      157.533 1 2 100 12.7729 0
45      157.533 1 2 100 19.1594 0
46      157.533 1 2 100 25.5458 0
47      157.533 1 2 100 31.9323 0
48      157.533 1 2 100 38.3188 0
49      157.533 1 2 100 44.7052 0
50      157.533 1 2 100 51.0917 0
51      157.533 1 2 100 57.4781 0
52      157.533 1 2 100 63.8646 0
53      157.533 1 2 100 70.2511 0
54      157.533 1 2 100 76.6375 0
55      157.533 1 2 100 83.024 0
56      157.533 1 2 100 89.4104 0
57      157.533 1 2 100 95.7969 0
58      157.533 1 2 100 102.183 0
59      157.533 1 2 100 108.57 0
60      157.533 1 2 100 114.956 0
61      157.533 1 2 100 121.343 0
62      157.533 1 2 100 127.729 0
63      157.533 1 2 100 134.116 0
64      157.533 1 2 100 140.502 0
65      157.533 1 2 100 146.889 0
66      157.533 1 2 100 153.275 0
67      157.533 1 2 100 159.661 0
68      157.533 1 2 100 166.048 0
69      157.533 1 2 100 172.434 0
70      157.533 1 2 100 178.821 0
71      157.533 1 2 100 185.207 0
72      157.533 1 2 100 191.594 0
73      157.533 1 2 100 197.98 0
74      157.533 1 2 100 204.367 0
75      157.533 1 2 100 210.753 0
76      157.533 1 2 100 217.14 0
77      157.533 1 2 100 223.526 0
78      157.533 1 2 100 229.913 0
79      157.533 1 2 100 236.299 0
80      157.533 1 2 100 242.685 0
81      157.533 1 2 100 249.072 0
82      157.533 1 2 100 255.458 0

# Format of trapezoid gradients:
# id amplitude rise flat fall delay
# ..      Hz/m   us   us   us    us
[TRAP]
 1  1.36243e+06 1000 4500 1000   0

# Format of ADC events:
# id num dwell delay freq phase
# ..  ..    ns    us   Hz   rad
[ADC]
1 1 1000000 0 0 0

# Format of delays:
# id delay (us)
[DELAYS]
1 12000000
2 3000000

# Sequence Shapes
[SHAPES]

shape_id 1
num_samples 5030
1
0
0
4997
-1
0
0
27

shape_id 2
num_samples 5030
0
0
5028

