# Pulseq sequence file
# Created by PyPulseq

# Created for Pulseq-CEST
# https://pulseq-cest.github.io/
# Created by: https://github.com/pulseq-cest/BMsim_challenge
# Created at: 17-Aug-2023 14:55:37

[VERSION]
major 1
minor 4
revision 0

[DEFINITIONS]
AdcRasterTime 1e-07 
B0 3 
B1pa 3.7 
B1rms 3.66354591 
BlockDurationRaster 1e-05 
FREQ 127.7292 
GradientRasterTime 1e-05 
M0_offset -300 
RadiofrequencyRasterTime 1e-06 
Trec 3.0 
Trec_M0 12 
Tsat 0.0101 
n_pulses 2 
num_meas 82 
offsets_ppm -300 -2 -1.95 -1.9 -1.85 -1.8 -1.75 -1.7 -1.65 -1.6 -1.55 -1.5 -1.45 -1.4 -1.35 -1.3 -1.25 -1.2 -1.15 -1.1 -1.05 -1 -0.95 -0.9 -0.85 -0.8 -0.75 -0.7 -0.65 -0.6 -0.55 -0.5 -0.45 -0.4 -0.35 -0.3 -0.25 -0.2 -0.15 -0.1 -0.05 0 0.05 0.1 0.15 0.2 0.25 0.3 0.35 0.4 0.45 0.5 0.55 0.6 0.65 0.7 0.75 0.8 0.85 0.9 0.95 1 1.05 1.1 1.15 1.2 1.25 1.3 1.35 1.4 1.45 1.5 1.55 1.6 1.65 1.7 1.75 1.8 1.85 1.9 1.95 2 
seq_id_string case_8_pypulseq_v140 
td 0.0001 
tp 0.005 

# Format of blocks:
# NUM DUR RF  GX  GY  GZ  ADC  EXT
[BLOCKS]
  1 1200000   0   0   0   0  0  0
  2 500   1   0   0   0  0  0
  3  10   0   0   0   0  0  0
  4 500   2   0   0   0  0  0
  5 650   0   1   1   1  0  0
  6 100   0   0   0   0  1  0
  7 300000   0   0   0   0  0  0
  8 500   3   0   0   0  0  0
  9  10   0   0   0   0  0  0
 10 500   4   0   0   0  0  0
 11 650   0   1   1   1  0  0
 12 100   0   0   0   0  1  0
 13 300000   0   0   0   0  0  0
 14 500   5   0   0   0  0  0
 15  10   0   0   0   0  0  0
 16 500   6   0   0   0  0  0
 17 650   0   1   1   1  0  0
 18 100   0   0   0   0  1  0
 19 300000   0   0   0   0  0  0
 20 500   7   0   0   0  0  0
 21  10   0   0   0   0  0  0
 22 500   8   0   0   0  0  0
 23 650   0   1   1   1  0  0
 24 100   0   0   0   0  1  0
 25 300000   0   0   0   0  0  0
 26 500   9   0   0   0  0  0
 27  10   0   0   0   0  0  0
 28 500  10   0   0   0  0  0
 29 650   0   1   1   1  0  0
 30 100   0   0   0   0  1  0
 31 300000   0   0   0   0  0  0
 32 500  11   0   0   0  0  0
 33  10   0   0   0   0  0  0
 34 500  12   0   0   0  0  0
 35 650   0   1   1   1  0  0
 36 100   0   0   0   0  1  0
 37 300000   0   0   0   0  0  0
 38 500  13   0   0   0  0  0
 39  10   0   0   0   0  0  0
 40 500  14   0   0   0  0  0
 41 650   0   1   1   1  0  0
 42 100   0   0   0   0  1  0
 43 300000   0   0   0   0  0  0
 44 500  15   0   0   0  0  0
 45  10   0   0   0   0  0  0
 46 500  16   0   0   0  0  0
 47 650   0   1   1   1  0  0
 48 100   0   0   0   0  1  0
 49 300000   0   0   0   0  0  0
 50 500  17   0   0   0  0  0
 51  10   0   0   0   0  0  0
 52 500  18   0   0   0  0  0
 53 650   0   1   1   1  0  0
 54 100   0   0   0   0  1  0
 55 300000   0   0   0   0  0  0
 56 500  19   0   0   0  0  0
 57  10   0   0   0   0  0  0
 58 500  20   0   0   0  0  0
 59 650   0   1   1   1  0  0
 60 100   0   0   0   0  1  0
 61 300000   0   0   0   0  0  0
 62 500  21   0   0   0  0  0
 63  10   0   0   0   0  0  0
 64 500  22   0   0   0  0  0
 65 650   0   1   1   1  0  0
 66 100   0   0   0   0  1  0
 67 300000   0   0   0   0  0  0
 68 500  23   0   0   0  0  0
 69  10   0   0   0   0  0  0
 70 500  24   0   0   0  0  0
 71 650   0   1   1   1  0  0
 72 100   0   0   0   0  1  0
 73 300000   0   0   0   0  0  0
 74 500  25   0   0   0  0  0
 75  10   0   0   0   0  0  0
 76 500  26   0   0   0  0  0
 77 650   0   1   1   1  0  0
 78 100   0   0   0   0  1  0
 79 300000   0   0   0   0  0  0
 80 500  27   0   0   0  0  0
 81  10   0   0   0   0  0  0
 82 500  28   0   0   0  0  0
 83 650   0   1   1   1  0  0
 84 100   0   0   0   0  1  0
 85 300000   0   0   0   0  0  0
 86 500  29   0   0   0  0  0
 87  10   0   0   0   0  0  0
 88 500  30   0   0   0  0  0
 89 650   0   1   1   1  0  0
 90 100   0   0   0   0  1  0
 91 300000   0   0   0   0  0  0
 92 500  31   0   0   0  0  0
 93  10   0   0   0   0  0  0
 94 500  32   0   0   0  0  0
 95 650   0   1   1   1  0  0
 96 100   0   0   0   0  1  0
 97 300000   0   0   0   0  0  0
 98 500  33   0   0   0  0  0
 99  10   0   0   0   0  0  0
100 500  34   0   0   0  0  0
101 650   0   1   1   1  0  0
102 100   0   0   0   0  1  0
103 300000   0   0   0   0  0  0
104 500  35   0   0   0  0  0
105  10   0   0   0   0  0  0
106 500  36   0   0   0  0  0
107 650   0   1   1   1  0  0
108 100   0   0   0   0  1  0
109 300000   0   0   0   0  0  0
110 500  37   0   0   0  0  0
111  10   0   0   0   0  0  0
112 500  38   0   0   0  0  0
113 650   0   1   1   1  0  0
114 100   0   0   0   0  1  0
115 300000   0   0   0   0  0  0
116 500  39   0   0   0  0  0
117  10   0   0   0   0  0  0
118 500  40   0   0   0  0  0
119 650   0   1   1   1  0  0
120 100   0   0   0   0  1  0
121 300000   0   0   0   0  0  0
122 500  41   0   0   0  0  0
123  10   0   0   0   0  0  0
124 500  42   0   0   0  0  0
125 650   0   1   1   1  0  0
126 100   0   0   0   0  1  0
127 300000   0   0   0   0  0  0
128 500  43   0   0   0  0  0
129  10   0   0   0   0  0  0
130 500  44   0   0   0  0  0
131 650   0   1   1   1  0  0
132 100   0   0   0   0  1  0
133 300000   0   0   0   0  0  0
134 500  45   0   0   0  0  0
135  10   0   0   0   0  0  0
136 500  46   0   0   0  0  0
137 650   0   1   1   1  0  0
138 100   0   0   0   0  1  0
139 300000   0   0   0   0  0  0
140 500  47   0   0   0  0  0
141  10   0   0   0   0  0  0
142 500  48   0   0   0  0  0
143 650   0   1   1   1  0  0
144 100   0   0   0   0  1  0
145 300000   0   0   0   0  0  0
146 500  49   0   0   0  0  0
147  10   0   0   0   0  0  0
148 500  50   0   0   0  0  0
149 650   0   1   1   1  0  0
150 100   0   0   0   0  1  0
151 300000   0   0   0   0  0  0
152 500  51   0   0   0  0  0
153  10   0   0   0   0  0  0
154 500  52   0   0   0  0  0
155 650   0   1   1   1  0  0
156 100   0   0   0   0  1  0
157 300000   0   0   0   0  0  0
158 500  53   0   0   0  0  0
159  10   0   0   0   0  0  0
160 500  54   0   0   0  0  0
161 650   0   1   1   1  0  0
162 100   0   0   0   0  1  0
163 300000   0   0   0   0  0  0
164 500  55   0   0   0  0  0
165  10   0   0   0   0  0  0
166 500  56   0   0   0  0  0
167 650   0   1   1   1  0  0
168 100   0   0   0   0  1  0
169 300000   0   0   0   0  0  0
170 500  57   0   0   0  0  0
171  10   0   0   0   0  0  0
172 500  58   0   0   0  0  0
173 650   0   1   1   1  0  0
174 100   0   0   0   0  1  0
175 300000   0   0   0   0  0  0
176 500  59   0   0   0  0  0
177  10   0   0   0   0  0  0
178 500  60   0   0   0  0  0
179 650   0   1   1   1  0  0
180 100   0   0   0   0  1  0
181 300000   0   0   0   0  0  0
182 500  61   0   0   0  0  0
183  10   0   0   0   0  0  0
184 500  62   0   0   0  0  0
185 650   0   1   1   1  0  0
186 100   0   0   0   0  1  0
187 300000   0   0   0   0  0  0
188 500  63   0   0   0  0  0
189  10   0   0   0   0  0  0
190 500  64   0   0   0  0  0
191 650   0   1   1   1  0  0
192 100   0   0   0   0  1  0
193 300000   0   0   0   0  0  0
194 500  65   0   0   0  0  0
195  10   0   0   0   0  0  0
196 500  66   0   0   0  0  0
197 650   0   1   1   1  0  0
198 100   0   0   0   0  1  0
199 300000   0   0   0   0  0  0
200 500  67   0   0   0  0  0
201  10   0   0   0   0  0  0
202 500  68   0   0   0  0  0
203 650   0   1   1   1  0  0
204 100   0   0   0   0  1  0
205 300000   0   0   0   0  0  0
206 500  69   0   0   0  0  0
207  10   0   0   0   0  0  0
208 500  70   0   0   0  0  0
209 650   0   1   1   1  0  0
210 100   0   0   0   0  1  0
211 300000   0   0   0   0  0  0
212 500  71   0   0   0  0  0
213  10   0   0   0   0  0  0
214 500  72   0   0   0  0  0
215 650   0   1   1   1  0  0
216 100   0   0   0   0  1  0
217 300000   0   0   0   0  0  0
218 500  73   0   0   0  0  0
219  10   0   0   0   0  0  0
220 500  74   0   0   0  0  0
221 650   0   1   1   1  0  0
222 100   0   0   0   0  1  0
223 300000   0   0   0   0  0  0
224 500  75   0   0   0  0  0
225  10   0   0   0   0  0  0
226 500  76   0   0   0  0  0
227 650   0   1   1   1  0  0
228 100   0   0   0   0  1  0
229 300000   0   0   0   0  0  0
230 500  77   0   0   0  0  0
231  10   0   0   0   0  0  0
232 500  78   0   0   0  0  0
233 650   0   1   1   1  0  0
234 100   0   0   0   0  1  0
235 300000   0   0   0   0  0  0
236 500  79   0   0   0  0  0
237  10   0   0   0   0  0  0
238 500  80   0   0   0  0  0
239 650   0   1   1   1  0  0
240 100   0   0   0   0  1  0
241 300000   0   0   0   0  0  0
242 500  81   0   0   0  0  0
243  10   0   0   0   0  0  0
244 500  82   0   0   0  0  0
245 650   0   1   1   1  0  0
246 100   0   0   0   0  1  0
247 300000   0   0   0   0  0  0
248 500  83   0   0   0  0  0
249  10   0   0   0   0  0  0
250 500  83   0   0   0  0  0
251 650   0   1   1   1  0  0
252 100   0   0   0   0  1  0
253 300000   0   0   0   0  0  0
254 500  84   0   0   0  0  0
255  10   0   0   0   0  0  0
256 500  85   0   0   0  0  0
257 650   0   1   1   1  0  0
258 100   0   0   0   0  1  0
259 300000   0   0   0   0  0  0
260 500  86   0   0   0  0  0
261  10   0   0   0   0  0  0
262 500  87   0   0   0  0  0
263 650   0   1   1   1  0  0
264 100   0   0   0   0  1  0
265 300000   0   0   0   0  0  0
266 500  88   0   0   0  0  0
267  10   0   0   0   0  0  0
268 500  89   0   0   0  0  0
269 650   0   1   1   1  0  0
270 100   0   0   0   0  1  0
271 300000   0   0   0   0  0  0
272 500  90   0   0   0  0  0
273  10   0   0   0   0  0  0
274 500  91   0   0   0  0  0
275 650   0   1   1   1  0  0
276 100   0   0   0   0  1  0
277 300000   0   0   0   0  0  0
278 500  92   0   0   0  0  0
279  10   0   0   0   0  0  0
280 500  93   0   0   0  0  0
281 650   0   1   1   1  0  0
282 100   0   0   0   0  1  0
283 300000   0   0   0   0  0  0
284 500  94   0   0   0  0  0
285  10   0   0   0   0  0  0
286 500  95   0   0   0  0  0
287 650   0   1   1   1  0  0
288 100   0   0   0   0  1  0
289 300000   0   0   0   0  0  0
290 500  96   0   0   0  0  0
291  10   0   0   0   0  0  0
292 500  97   0   0   0  0  0
293 650   0   1   1   1  0  0
294 100   0   0   0   0  1  0
295 300000   0   0   0   0  0  0
296 500  98   0   0   0  0  0
297  10   0   0   0   0  0  0
298 500  99   0   0   0  0  0
299 650   0   1   1   1  0  0
300 100   0   0   0   0  1  0
301 300000   0   0   0   0  0  0
302 500 100   0   0   0  0  0
303  10   0   0   0   0  0  0
304 500 101   0   0   0  0  0
305 650   0   1   1   1  0  0
306 100   0   0   0   0  1  0
307 300000   0   0   0   0  0  0
308 500 102   0   0   0  0  0
309  10   0   0   0   0  0  0
310 500 103   0   0   0  0  0
311 650   0   1   1   1  0  0
312 100   0   0   0   0  1  0
313 300000   0   0   0   0  0  0
314 500 104   0   0   0  0  0
315  10   0   0   0   0  0  0
316 500 105   0   0   0  0  0
317 650   0   1   1   1  0  0
318 100   0   0   0   0  1  0
319 300000   0   0   0   0  0  0
320 500 106   0   0   0  0  0
321  10   0   0   0   0  0  0
322 500 107   0   0   0  0  0
323 650   0   1   1   1  0  0
324 100   0   0   0   0  1  0
325 300000   0   0   0   0  0  0
326 500 108   0   0   0  0  0
327  10   0   0   0   0  0  0
328 500 109   0   0   0  0  0
329 650   0   1   1   1  0  0
330 100   0   0   0   0  1  0
331 300000   0   0   0   0  0  0
332 500 110   0   0   0  0  0
333  10   0   0   0   0  0  0
334 500 111   0   0   0  0  0
335 650   0   1   1   1  0  0
336 100   0   0   0   0  1  0
337 300000   0   0   0   0  0  0
338 500 112   0   0   0  0  0
339  10   0   0   0   0  0  0
340 500 113   0   0   0  0  0
341 650   0   1   1   1  0  0
342 100   0   0   0   0  1  0
343 300000   0   0   0   0  0  0
344 500 114   0   0   0  0  0
345  10   0   0   0   0  0  0
346 500 115   0   0   0  0  0
347 650   0   1   1   1  0  0
348 100   0   0   0   0  1  0
349 300000   0   0   0   0  0  0
350 500 116   0   0   0  0  0
351  10   0   0   0   0  0  0
352 500 117   0   0   0  0  0
353 650   0   1   1   1  0  0
354 100   0   0   0   0  1  0
355 300000   0   0   0   0  0  0
356 500 118   0   0   0  0  0
357  10   0   0   0   0  0  0
358 500 119   0   0   0  0  0
359 650   0   1   1   1  0  0
360 100   0   0   0   0  1  0
361 300000   0   0   0   0  0  0
362 500 120   0   0   0  0  0
363  10   0   0   0   0  0  0
364 500 121   0   0   0  0  0
365 650   0   1   1   1  0  0
366 100   0   0   0   0  1  0
367 300000   0   0   0   0  0  0
368 500 122   0   0   0  0  0
369  10   0   0   0   0  0  0
370 500 123   0   0   0  0  0
371 650   0   1   1   1  0  0
372 100   0   0   0   0  1  0
373 300000   0   0   0   0  0  0
374 500 124   0   0   0  0  0
375  10   0   0   0   0  0  0
376 500 125   0   0   0  0  0
377 650   0   1   1   1  0  0
378 100   0   0   0   0  1  0
379 300000   0   0   0   0  0  0
380 500 126   0   0   0  0  0
381  10   0   0   0   0  0  0
382 500 127   0   0   0  0  0
383 650   0   1   1   1  0  0
384 100   0   0   0   0  1  0
385 300000   0   0   0   0  0  0
386 500 128   0   0   0  0  0
387  10   0   0   0   0  0  0
388 500 129   0   0   0  0  0
389 650   0   1   1   1  0  0
390 100   0   0   0   0  1  0
391 300000   0   0   0   0  0  0
392 500 130   0   0   0  0  0
393  10   0   0   0   0  0  0
394 500 131   0   0   0  0  0
395 650   0   1   1   1  0  0
396 100   0   0   0   0  1  0
397 300000   0   0   0   0  0  0
398 500 132   0   0   0  0  0
399  10   0   0   0   0  0  0
400 500 133   0   0   0  0  0
401 650   0   1   1   1  0  0
402 100   0   0   0   0  1  0
403 300000   0   0   0   0  0  0
404 500 134   0   0   0  0  0
405  10   0   0   0   0  0  0
406 500 135   0   0   0  0  0
407 650   0   1   1   1  0  0
408 100   0   0   0   0  1  0
409 300000   0   0   0   0  0  0
410 500 136   0   0   0  0  0
411  10   0   0   0   0  0  0
412 500 137   0   0   0  0  0
413 650   0   1   1   1  0  0
414 100   0   0   0   0  1  0
415 300000   0   0   0   0  0  0
416 500 138   0   0   0  0  0
417  10   0   0   0   0  0  0
418 500 139   0   0   0  0  0
419 650   0   1   1   1  0  0
420 100   0   0   0   0  1  0
421 300000   0   0   0   0  0  0
422 500 140   0   0   0  0  0
423  10   0   0   0   0  0  0
424 500 141   0   0   0  0  0
425 650   0   1   1   1  0  0
426 100   0   0   0   0  1  0
427 300000   0   0   0   0  0  0
428 500 142   0   0   0  0  0
429  10   0   0   0   0  0  0
430 500 143   0   0   0  0  0
431 650   0   1   1   1  0  0
432 100   0   0   0   0  1  0
433 300000   0   0   0   0  0  0
434 500 144   0   0   0  0  0
435  10   0   0   0   0  0  0
436 500 145   0   0   0  0  0
437 650   0   1   1   1  0  0
438 100   0   0   0   0  1  0
439 300000   0   0   0   0  0  0
440 500 146   0   0   0  0  0
441  10   0   0   0   0  0  0
442 500 147   0   0   0  0  0
443 650   0   1   1   1  0  0
444 100   0   0   0   0  1  0
445 300000   0   0   0   0  0  0
446 500 148   0   0   0  0  0
447  10   0   0   0   0  0  0
448 500 149   0   0   0  0  0
449 650   0   1   1   1  0  0
450 100   0   0   0   0  1  0
451 300000   0   0   0   0  0  0
452 500 150   0   0   0  0  0
453  10   0   0   0   0  0  0
454 500 151   0   0   0  0  0
455 650   0   1   1   1  0  0
456 100   0   0   0   0  1  0
457 300000   0   0   0   0  0  0
458 500 152   0   0   0  0  0
459  10   0   0   0   0  0  0
460 500 153   0   0   0  0  0
461 650   0   1   1   1  0  0
462 100   0   0   0   0  1  0
463 300000   0   0   0   0  0  0
464 500 154   0   0   0  0  0
465  10   0   0   0   0  0  0
466 500 155   0   0   0  0  0
467 650   0   1   1   1  0  0
468 100   0   0   0   0  1  0
469 300000   0   0   0   0  0  0
470 500 156   0   0   0  0  0
471  10   0   0   0   0  0  0
472 500 157   0   0   0  0  0
473 650   0   1   1   1  0  0
474 100   0   0   0   0  1  0
475 300000   0   0   0   0  0  0
476 500 158   0   0   0  0  0
477  10   0   0   0   0  0  0
478 500 159   0   0   0  0  0
479 650   0   1   1   1  0  0
480 100   0   0   0   0  1  0
481 300000   0   0   0   0  0  0
482 500 160   0   0   0  0  0
483  10   0   0   0   0  0  0
484 500 161   0   0   0  0  0
485 650   0   1   1   1  0  0
486 100   0   0   0   0  1  0
487 300000   0   0   0   0  0  0
488 500 162   0   0   0  0  0
489  10   0   0   0   0  0  0
490 500 163   0   0   0  0  0
491 650   0   1   1   1  0  0
492 100   0   0   0   0  1  0

# Format of RF events:
# id amplitude mag_id phase_id time_shape_id delay freq phase
# ..        Hz   ....     ....          ....    us   Hz   rad
[RF]
1      157.533 1 2 3 0 -38318.8 0
2      157.533 1 2 3 0 -38318.8 2.55223
3      157.533 1 2 3 0 -255.458 0
4      157.533 1 2 3 0 -255.458 4.54091
5      157.533 1 2 3 0 -249.072 0
6      157.533 1 2 3 0 -249.072 4.74154
7      157.533 1 2 3 0 -242.685 0
8      157.533 1 2 3 0 -242.685 4.94218
9      157.533 1 2 3 0 -236.299 0
10      157.533 1 2 3 0 -236.299 5.14282
11      157.533 1 2 3 0 -229.913 0
12      157.533 1 2 3 0 -229.913 5.34345
13      157.533 1 2 3 0 -223.526 0
14      157.533 1 2 3 0 -223.526 5.54409
15      157.533 1 2 3 0 -217.14 0
16      157.533 1 2 3 0 -217.14 5.74473
17      157.533 1 2 3 0 -210.753 0
18      157.533 1 2 3 0 -210.753 5.94536
19      157.533 1 2 3 0 -204.367 0
20      157.533 1 2 3 0 -204.367 6.146
21      157.533 1 2 3 0 -197.98 0
22      157.533 1 2 3 0 -197.98 0.063452
23      157.533 1 2 3 0 -191.594 0
24      157.533 1 2 3 0 -191.594 0.264089
25      157.533 1 2 3 0 -185.207 0
26      157.533 1 2 3 0 -185.207 0.464725
27      157.533 1 2 3 0 -178.821 0
28      157.533 1 2 3 0 -178.821 0.665362
29      157.533 1 2 3 0 -172.434 0
30      157.533 1 2 3 0 -172.434 0.865998
31      157.533 1 2 3 0 -166.048 0
32      157.533 1 2 3 0 -166.048 1.06663
33      157.533 1 2 3 0 -159.661 0
34      157.533 1 2 3 0 -159.661 1.26727
35      157.533 1 2 3 0 -153.275 0
36      157.533 1 2 3 0 -153.275 1.46791
37      157.533 1 2 3 0 -146.889 0
38      157.533 1 2 3 0 -146.889 1.66854
39      157.533 1 2 3 0 -140.502 0
40      157.533 1 2 3 0 -140.502 1.86918
41      157.533 1 2 3 0 -134.116 0
42      157.533 1 2 3 0 -134.116 2.06982
43      157.533 1 2 3 0 -127.729 0
44      157.533 1 2 3 0 -127.729 2.27045
45      157.533 1 2 3 0 -121.343 0
46      157.533 1 2 3 0 -121.343 2.47109
47      157.533 1 2 3 0 -114.956 0
48      157.533 1 2 3 0 -114.956 2.67173
49      157.533 1 2 3 0 -108.57 0
50      157.533 1 2 3 0 -108.57 2.87236
51      157.533 1 2 3 0 -102.183 0
52      157.533 1 2 3 0 -102.183 3.073
53      157.533 1 2 3 0 -95.7969 0
54      157.533 1 2 3 0 -95.7969 3.27364
55      157.533 1 2 3 0 -89.4104 0
56      157.533 1 2 3 0 -89.4104 3.47427
57      157.533 1 2 3 0 -83.024 0
58      157.533 1 2 3 0 -83.024 3.67491
59      157.533 1 2 3 0 -76.6375 0
60      157.533 1 2 3 0 -76.6375 3.87555
61      157.533 1 2 3 0 -70.2511 0
62      157.533 1 2 3 0 -70.2511 4.07618
63      157.533 1 2 3 0 -63.8646 0
64      157.533 1 2 3 0 -63.8646 4.27682
65      157.533 1 2 3 0 -57.4781 0
66      157.533 1 2 3 0 -57.4781 4.47746
67      157.533 1 2 3 0 -51.0917 0
68      157.533 1 2 3 0 -51.0917 4.67809
69      157.533 1 2 3 0 -44.7052 0
70      157.533 1 2 3 0 -44.7052 4.87873
71      157.533 1 2 3 0 -38.3188 0
72      157.533 1 2 3 0 -38.3188 5.07937
73      157.533 1 2 3 0 -31.9323 0
74      157.533 1 2 3 0 -31.9323 5.28
75      157.533 1 2 3 0 -25.5458 0
76      157.533 1 2 3 0 -25.5458 5.48064
77      157.533 1 2 3 0 -19.1594 0
78      157.533 1 2 3 0 -19.1594 5.68128
79      157.533 1 2 3 0 -12.7729 0
80      157.533 1 2 3 0 -12.7729 5.88191
81      157.533 1 2 3 0 -6.38646 0
82      157.533 1 2 3 0 -6.38646 6.08255
83      157.533 1 2 3 0 0 0
84      157.533 1 2 3 0 6.38646 0
85      157.533 1 2 3 0 6.38646 0.200637
86      157.533 1 2 3 0 12.7729 0
87      157.533 1 2 3 0 12.7729 0.401273
88      157.533 1 2 3 0 19.1594 0
89      157.533 1 2 3 0 19.1594 0.60191
90      157.533 1 2 3 0 25.5458 0
91      157.533 1 2 3 0 25.5458 0.802546
92      157.533 1 2 3 0 31.9323 0
93      157.533 1 2 3 0 31.9323 1.00318
94      157.533 1 2 3 0 38.3188 0
95      157.533 1 2 3 0 38.3188 1.20382
96      157.533 1 2 3 0 44.7052 0
97      157.533 1 2 3 0 44.7052 1.40446
98      157.533 1 2 3 0 51.0917 0
99      157.533 1 2 3 0 51.0917 1.60509
100      157.533 1 2 3 0 57.4781 0
101      157.533 1 2 3 0 57.4781 1.80573
102      157.533 1 2 3 0 63.8646 0
103      157.533 1 2 3 0 63.8646 2.00637
104      157.533 1 2 3 0 70.2511 0
105      157.533 1 2 3 0 70.2511 2.207
106      157.533 1 2 3 0 76.6375 0
107      157.533 1 2 3 0 76.6375 2.40764
108      157.533 1 2 3 0 83.024 0
109      157.533 1 2 3 0 83.024 2.60828
110      157.533 1 2 3 0 89.4104 0
111      157.533 1 2 3 0 89.4104 2.80891
112      157.533 1 2 3 0 95.7969 0
113      157.533 1 2 3 0 95.7969 3.00955
114      157.533 1 2 3 0 102.183 0
115      157.533 1 2 3 0 102.183 3.21018
116      157.533 1 2 3 0 108.57 0
117      157.533 1 2 3 0 108.57 3.41082
118      157.533 1 2 3 0 114.956 0
119      157.533 1 2 3 0 114.956 3.61146
120      157.533 1 2 3 0 121.343 0
121      157.533 1 2 3 0 121.343 3.81209
122      157.533 1 2 3 0 127.729 0
123      157.533 1 2 3 0 127.729 4.01273
124      157.533 1 2 3 0 134.116 0
125      157.533 1 2 3 0 134.116 4.21337
126      157.533 1 2 3 0 140.502 0
127      157.533 1 2 3 0 140.502 4.414
128      157.533 1 2 3 0 146.889 0
129      157.533 1 2 3 0 146.889 4.61464
130      157.533 1 2 3 0 153.275 0
131      157.533 1 2 3 0 153.275 4.81528
132      157.533 1 2 3 0 159.661 0
133      157.533 1 2 3 0 159.661 5.01591
134      157.533 1 2 3 0 166.048 0
135      157.533 1 2 3 0 166.048 5.21655
136      157.533 1 2 3 0 172.434 0
137      157.533 1 2 3 0 172.434 5.41719
138      157.533 1 2 3 0 178.821 0
139      157.533 1 2 3 0 178.821 5.61782
140      157.533 1 2 3 0 185.207 0
141      157.533 1 2 3 0 185.207 5.81846
142      157.533 1 2 3 0 191.594 0
143      157.533 1 2 3 0 191.594 6.0191
144      157.533 1 2 3 0 197.98 0
145      157.533 1 2 3 0 197.98 6.21973
146      157.533 1 2 3 0 204.367 0
147      157.533 1 2 3 0 204.367 0.137185
148      157.533 1 2 3 0 210.753 0
149      157.533 1 2 3 0 210.753 0.337821
150      157.533 1 2 3 0 217.14 0
151      157.533 1 2 3 0 217.14 0.538458
152      157.533 1 2 3 0 223.526 0
153      157.533 1 2 3 0 223.526 0.739094
154      157.533 1 2 3 0 229.913 0
155      157.533 1 2 3 0 229.913 0.939731
156      157.533 1 2 3 0 236.299 0
157      157.533 1 2 3 0 236.299 1.14037
158      157.533 1 2 3 0 242.685 0
159      157.533 1 2 3 0 242.685 1.341
160      157.533 1 2 3 0 249.072 0
161      157.533 1 2 3 0 249.072 1.54164
162      157.533 1 2 3 0 255.458 0
163      157.533 1 2 3 0 255.458 1.74228

# Format of trapezoid gradients:
# id amplitude rise flat fall delay
# ..      Hz/m   us   us   us    us
[TRAP]
 1  2.72489e+06 1000 4500 1000   0

# Format of ADC events:
# id num dwell delay freq phase
# ..  ..    ns    us   Hz   rad
[ADC]
1 1 1000000 0 0 0

# Sequence Shapes
[SHAPES]

shape_id 1
num_samples 2
1
1

shape_id 2
num_samples 2
0
0

shape_id 3
num_samples 2
0
5000


[SIGNATURE]
# This is the hash of the Pulseq file, calculated right before the [SIGNATURE] section was added
# It can be reproduced/verified with md5sum if the file trimmed to the position right above [SIGNATURE]
# The new line character preceding [SIGNATURE] BELONGS to the signature (and needs to be stripped away for recalculating/verification)
Type md5
Hash 22e3fb0faa7d4d342a3c6e084e09c909
