# Pulseq sequence file
# Created by PyPulseq

# Created for Pulseq-CEST
# https://pulseq-cest.github.io/
# Created by: https://github.com/pulseq-cest/BMsim_challenge
# Created at: 17-Aug-2023 10:06:58

[VERSION]
major 1
minor 3
revision 1post1

[DEFINITIONS]
B0 3 
B1pa 3.7 
B1rms 3.66317954 
FREQ 127.7292 
M0_offset -300 
Trec 3.0 
Trec_M0 12 
Tsat 0.0101 
n_pulses 2 
num_meas 82 
offsets_ppm -300 -2 -1.95 -1.9 -1.85 -1.8 -1.75 -1.7 -1.65 -1.6 -1.55 -1.5 -1.45 -1.4 -1.35 -1.3 -1.25 -1.2 -1.15 -1.1 -1.05 -1 -0.95 -0.9 -0.85 -0.8 -0.75 -0.7 -0.65 -0.6 -0.55 -0.5 -0.45 -0.4 -0.35 -0.3 -0.25 -0.2 -0.15 -0.1 -0.05 0 0.05 0.1 0.15 0.2 0.25 0.3 0.35 0.4 0.45 0.5 0.55 0.6 0.65 0.7 0.75 0.8 0.85 0.9 0.95 1 1.05 1.1 1.15 1.2 1.25 1.3 1.35 1.4 1.45 1.5 1.55 1.6 1.65 1.7 1.75 1.8 1.85 1.9 1.95 2 
seq_id_string case_8_pypulseq_v131 
td 0.0001 
tp 0.005 

# Format of blocks:
#  #  D RF  GX  GY  GZ ADC EXT
[BLOCKS]
  1  1  0   0   0   0  0  0
  2  0  1   0   0   0  0  0
  3  2  0   0   0   0  0  0
  4  0  2   0   0   0  0  0
  5  0  0   1   1   1  0  0
  6  0  0   0   0   0  1  0
  7  3  0   0   0   0  0  0
  8  0  3   0   0   0  0  0
  9  2  0   0   0   0  0  0
 10  0  4   0   0   0  0  0
 11  0  0   1   1   1  0  0
 12  0  0   0   0   0  1  0
 13  3  0   0   0   0  0  0
 14  0  5   0   0   0  0  0
 15  2  0   0   0   0  0  0
 16  0  6   0   0   0  0  0
 17  0  0   1   1   1  0  0
 18  0  0   0   0   0  1  0
 19  3  0   0   0   0  0  0
 20  0  7   0   0   0  0  0
 21  2  0   0   0   0  0  0
 22  0  8   0   0   0  0  0
 23  0  0   1   1   1  0  0
 24  0  0   0   0   0  1  0
 25  3  0   0   0   0  0  0
 26  0  9   0   0   0  0  0
 27  2  0   0   0   0  0  0
 28  0 10   0   0   0  0  0
 29  0  0   1   1   1  0  0
 30  0  0   0   0   0  1  0
 31  3  0   0   0   0  0  0
 32  0 11   0   0   0  0  0
 33  2  0   0   0   0  0  0
 34  0 12   0   0   0  0  0
 35  0  0   1   1   1  0  0
 36  0  0   0   0   0  1  0
 37  3  0   0   0   0  0  0
 38  0 13   0   0   0  0  0
 39  2  0   0   0   0  0  0
 40  0 14   0   0   0  0  0
 41  0  0   1   1   1  0  0
 42  0  0   0   0   0  1  0
 43  3  0   0   0   0  0  0
 44  0 15   0   0   0  0  0
 45  2  0   0   0   0  0  0
 46  0 16   0   0   0  0  0
 47  0  0   1   1   1  0  0
 48  0  0   0   0   0  1  0
 49  3  0   0   0   0  0  0
 50  0 17   0   0   0  0  0
 51  2  0   0   0   0  0  0
 52  0 18   0   0   0  0  0
 53  0  0   1   1   1  0  0
 54  0  0   0   0   0  1  0
 55  3  0   0   0   0  0  0
 56  0 19   0   0   0  0  0
 57  2  0   0   0   0  0  0
 58  0 20   0   0   0  0  0
 59  0  0   1   1   1  0  0
 60  0  0   0   0   0  1  0
 61  3  0   0   0   0  0  0
 62  0 21   0   0   0  0  0
 63  2  0   0   0   0  0  0
 64  0 22   0   0   0  0  0
 65  0  0   1   1   1  0  0
 66  0  0   0   0   0  1  0
 67  3  0   0   0   0  0  0
 68  0 23   0   0   0  0  0
 69  2  0   0   0   0  0  0
 70  0 24   0   0   0  0  0
 71  0  0   1   1   1  0  0
 72  0  0   0   0   0  1  0
 73  3  0   0   0   0  0  0
 74  0 25   0   0   0  0  0
 75  2  0   0   0   0  0  0
 76  0 26   0   0   0  0  0
 77  0  0   1   1   1  0  0
 78  0  0   0   0   0  1  0
 79  3  0   0   0   0  0  0
 80  0 27   0   0   0  0  0
 81  2  0   0   0   0  0  0
 82  0 28   0   0   0  0  0
 83  0  0   1   1   1  0  0
 84  0  0   0   0   0  1  0
 85  3  0   0   0   0  0  0
 86  0 29   0   0   0  0  0
 87  2  0   0   0   0  0  0
 88  0 30   0   0   0  0  0
 89  0  0   1   1   1  0  0
 90  0  0   0   0   0  1  0
 91  3  0   0   0   0  0  0
 92  0 31   0   0   0  0  0
 93  2  0   0   0   0  0  0
 94  0 32   0   0   0  0  0
 95  0  0   1   1   1  0  0
 96  0  0   0   0   0  1  0
 97  3  0   0   0   0  0  0
 98  0 33   0   0   0  0  0
 99  2  0   0   0   0  0  0
100  0 34   0   0   0  0  0
101  0  0   1   1   1  0  0
102  0  0   0   0   0  1  0
103  3  0   0   0   0  0  0
104  0 35   0   0   0  0  0
105  2  0   0   0   0  0  0
106  0 36   0   0   0  0  0
107  0  0   1   1   1  0  0
108  0  0   0   0   0  1  0
109  3  0   0   0   0  0  0
110  0 37   0   0   0  0  0
111  2  0   0   0   0  0  0
112  0 38   0   0   0  0  0
113  0  0   1   1   1  0  0
114  0  0   0   0   0  1  0
115  3  0   0   0   0  0  0
116  0 39   0   0   0  0  0
117  2  0   0   0   0  0  0
118  0 40   0   0   0  0  0
119  0  0   1   1   1  0  0
120  0  0   0   0   0  1  0
121  3  0   0   0   0  0  0
122  0 41   0   0   0  0  0
123  2  0   0   0   0  0  0
124  0 42   0   0   0  0  0
125  0  0   1   1   1  0  0
126  0  0   0   0   0  1  0
127  3  0   0   0   0  0  0
128  0 43   0   0   0  0  0
129  2  0   0   0   0  0  0
130  0 44   0   0   0  0  0
131  0  0   1   1   1  0  0
132  0  0   0   0   0  1  0
133  3  0   0   0   0  0  0
134  0 45   0   0   0  0  0
135  2  0   0   0   0  0  0
136  0 46   0   0   0  0  0
137  0  0   1   1   1  0  0
138  0  0   0   0   0  1  0
139  3  0   0   0   0  0  0
140  0 47   0   0   0  0  0
141  2  0   0   0   0  0  0
142  0 48   0   0   0  0  0
143  0  0   1   1   1  0  0
144  0  0   0   0   0  1  0
145  3  0   0   0   0  0  0
146  0 49   0   0   0  0  0
147  2  0   0   0   0  0  0
148  0 50   0   0   0  0  0
149  0  0   1   1   1  0  0
150  0  0   0   0   0  1  0
151  3  0   0   0   0  0  0
152  0 51   0   0   0  0  0
153  2  0   0   0   0  0  0
154  0 52   0   0   0  0  0
155  0  0   1   1   1  0  0
156  0  0   0   0   0  1  0
157  3  0   0   0   0  0  0
158  0 53   0   0   0  0  0
159  2  0   0   0   0  0  0
160  0 54   0   0   0  0  0
161  0  0   1   1   1  0  0
162  0  0   0   0   0  1  0
163  3  0   0   0   0  0  0
164  0 55   0   0   0  0  0
165  2  0   0   0   0  0  0
166  0 56   0   0   0  0  0
167  0  0   1   1   1  0  0
168  0  0   0   0   0  1  0
169  3  0   0   0   0  0  0
170  0 57   0   0   0  0  0
171  2  0   0   0   0  0  0
172  0 58   0   0   0  0  0
173  0  0   1   1   1  0  0
174  0  0   0   0   0  1  0
175  3  0   0   0   0  0  0
176  0 59   0   0   0  0  0
177  2  0   0   0   0  0  0
178  0 60   0   0   0  0  0
179  0  0   1   1   1  0  0
180  0  0   0   0   0  1  0
181  3  0   0   0   0  0  0
182  0 61   0   0   0  0  0
183  2  0   0   0   0  0  0
184  0 62   0   0   0  0  0
185  0  0   1   1   1  0  0
186  0  0   0   0   0  1  0
187  3  0   0   0   0  0  0
188  0 63   0   0   0  0  0
189  2  0   0   0   0  0  0
190  0 64   0   0   0  0  0
191  0  0   1   1   1  0  0
192  0  0   0   0   0  1  0
193  3  0   0   0   0  0  0
194  0 65   0   0   0  0  0
195  2  0   0   0   0  0  0
196  0 66   0   0   0  0  0
197  0  0   1   1   1  0  0
198  0  0   0   0   0  1  0
199  3  0   0   0   0  0  0
200  0 67   0   0   0  0  0
201  2  0   0   0   0  0  0
202  0 68   0   0   0  0  0
203  0  0   1   1   1  0  0
204  0  0   0   0   0  1  0
205  3  0   0   0   0  0  0
206  0 69   0   0   0  0  0
207  2  0   0   0   0  0  0
208  0 70   0   0   0  0  0
209  0  0   1   1   1  0  0
210  0  0   0   0   0  1  0
211  3  0   0   0   0  0  0
212  0 71   0   0   0  0  0
213  2  0   0   0   0  0  0
214  0 72   0   0   0  0  0
215  0  0   1   1   1  0  0
216  0  0   0   0   0  1  0
217  3  0   0   0   0  0  0
218  0 73   0   0   0  0  0
219  2  0   0   0   0  0  0
220  0 74   0   0   0  0  0
221  0  0   1   1   1  0  0
222  0  0   0   0   0  1  0
223  3  0   0   0   0  0  0
224  0 75   0   0   0  0  0
225  2  0   0   0   0  0  0
226  0 76   0   0   0  0  0
227  0  0   1   1   1  0  0
228  0  0   0   0   0  1  0
229  3  0   0   0   0  0  0
230  0 77   0   0   0  0  0
231  2  0   0   0   0  0  0
232  0 78   0   0   0  0  0
233  0  0   1   1   1  0  0
234  0  0   0   0   0  1  0
235  3  0   0   0   0  0  0
236  0 79   0   0   0  0  0
237  2  0   0   0   0  0  0
238  0 80   0   0   0  0  0
239  0  0   1   1   1  0  0
240  0  0   0   0   0  1  0
241  3  0   0   0   0  0  0
242  0 81   0   0   0  0  0
243  2  0   0   0   0  0  0
244  0 82   0   0   0  0  0
245  0  0   1   1   1  0  0
246  0  0   0   0   0  1  0
247  3  0   0   0   0  0  0
248  0 83   0   0   0  0  0
249  2  0   0   0   0  0  0
250  0 83   0   0   0  0  0
251  0  0   1   1   1  0  0
252  0  0   0   0   0  1  0
253  3  0   0   0   0  0  0
254  0 84   0   0   0  0  0
255  2  0   0   0   0  0  0
256  0 85   0   0   0  0  0
257  0  0   1   1   1  0  0
258  0  0   0   0   0  1  0
259  3  0   0   0   0  0  0
260  0 86   0   0   0  0  0
261  2  0   0   0   0  0  0
262  0 87   0   0   0  0  0
263  0  0   1   1   1  0  0
264  0  0   0   0   0  1  0
265  3  0   0   0   0  0  0
266  0 88   0   0   0  0  0
267  2  0   0   0   0  0  0
268  0 89   0   0   0  0  0
269  0  0   1   1   1  0  0
270  0  0   0   0   0  1  0
271  3  0   0   0   0  0  0
272  0 90   0   0   0  0  0
273  2  0   0   0   0  0  0
274  0 91   0   0   0  0  0
275  0  0   1   1   1  0  0
276  0  0   0   0   0  1  0
277  3  0   0   0   0  0  0
278  0 92   0   0   0  0  0
279  2  0   0   0   0  0  0
280  0 93   0   0   0  0  0
281  0  0   1   1   1  0  0
282  0  0   0   0   0  1  0
283  3  0   0   0   0  0  0
284  0 94   0   0   0  0  0
285  2  0   0   0   0  0  0
286  0 95   0   0   0  0  0
287  0  0   1   1   1  0  0
288  0  0   0   0   0  1  0
289  3  0   0   0   0  0  0
290  0 96   0   0   0  0  0
291  2  0   0   0   0  0  0
292  0 97   0   0   0  0  0
293  0  0   1   1   1  0  0
294  0  0   0   0   0  1  0
295  3  0   0   0   0  0  0
296  0 98   0   0   0  0  0
297  2  0   0   0   0  0  0
298  0 99   0   0   0  0  0
299  0  0   1   1   1  0  0
300  0  0   0   0   0  1  0
301  3  0   0   0   0  0  0
302  0 100   0   0   0  0  0
303  2  0   0   0   0  0  0
304  0 101   0   0   0  0  0
305  0  0   1   1   1  0  0
306  0  0   0   0   0  1  0
307  3  0   0   0   0  0  0
308  0 102   0   0   0  0  0
309  2  0   0   0   0  0  0
310  0 103   0   0   0  0  0
311  0  0   1   1   1  0  0
312  0  0   0   0   0  1  0
313  3  0   0   0   0  0  0
314  0 104   0   0   0  0  0
315  2  0   0   0   0  0  0
316  0 105   0   0   0  0  0
317  0  0   1   1   1  0  0
318  0  0   0   0   0  1  0
319  3  0   0   0   0  0  0
320  0 106   0   0   0  0  0
321  2  0   0   0   0  0  0
322  0 107   0   0   0  0  0
323  0  0   1   1   1  0  0
324  0  0   0   0   0  1  0
325  3  0   0   0   0  0  0
326  0 108   0   0   0  0  0
327  2  0   0   0   0  0  0
328  0 109   0   0   0  0  0
329  0  0   1   1   1  0  0
330  0  0   0   0   0  1  0
331  3  0   0   0   0  0  0
332  0 110   0   0   0  0  0
333  2  0   0   0   0  0  0
334  0 111   0   0   0  0  0
335  0  0   1   1   1  0  0
336  0  0   0   0   0  1  0
337  3  0   0   0   0  0  0
338  0 112   0   0   0  0  0
339  2  0   0   0   0  0  0
340  0 113   0   0   0  0  0
341  0  0   1   1   1  0  0
342  0  0   0   0   0  1  0
343  3  0   0   0   0  0  0
344  0 114   0   0   0  0  0
345  2  0   0   0   0  0  0
346  0 115   0   0   0  0  0
347  0  0   1   1   1  0  0
348  0  0   0   0   0  1  0
349  3  0   0   0   0  0  0
350  0 116   0   0   0  0  0
351  2  0   0   0   0  0  0
352  0 117   0   0   0  0  0
353  0  0   1   1   1  0  0
354  0  0   0   0   0  1  0
355  3  0   0   0   0  0  0
356  0 118   0   0   0  0  0
357  2  0   0   0   0  0  0
358  0 119   0   0   0  0  0
359  0  0   1   1   1  0  0
360  0  0   0   0   0  1  0
361  3  0   0   0   0  0  0
362  0 120   0   0   0  0  0
363  2  0   0   0   0  0  0
364  0 121   0   0   0  0  0
365  0  0   1   1   1  0  0
366  0  0   0   0   0  1  0
367  3  0   0   0   0  0  0
368  0 122   0   0   0  0  0
369  2  0   0   0   0  0  0
370  0 123   0   0   0  0  0
371  0  0   1   1   1  0  0
372  0  0   0   0   0  1  0
373  3  0   0   0   0  0  0
374  0 124   0   0   0  0  0
375  2  0   0   0   0  0  0
376  0 125   0   0   0  0  0
377  0  0   1   1   1  0  0
378  0  0   0   0   0  1  0
379  3  0   0   0   0  0  0
380  0 126   0   0   0  0  0
381  2  0   0   0   0  0  0
382  0 127   0   0   0  0  0
383  0  0   1   1   1  0  0
384  0  0   0   0   0  1  0
385  3  0   0   0   0  0  0
386  0 128   0   0   0  0  0
387  2  0   0   0   0  0  0
388  0 129   0   0   0  0  0
389  0  0   1   1   1  0  0
390  0  0   0   0   0  1  0
391  3  0   0   0   0  0  0
392  0 130   0   0   0  0  0
393  2  0   0   0   0  0  0
394  0 131   0   0   0  0  0
395  0  0   1   1   1  0  0
396  0  0   0   0   0  1  0
397  3  0   0   0   0  0  0
398  0 132   0   0   0  0  0
399  2  0   0   0   0  0  0
400  0 133   0   0   0  0  0
401  0  0   1   1   1  0  0
402  0  0   0   0   0  1  0
403  3  0   0   0   0  0  0
404  0 134   0   0   0  0  0
405  2  0   0   0   0  0  0
406  0 135   0   0   0  0  0
407  0  0   1   1   1  0  0
408  0  0   0   0   0  1  0
409  3  0   0   0   0  0  0
410  0 136   0   0   0  0  0
411  2  0   0   0   0  0  0
412  0 137   0   0   0  0  0
413  0  0   1   1   1  0  0
414  0  0   0   0   0  1  0
415  3  0   0   0   0  0  0
416  0 138   0   0   0  0  0
417  2  0   0   0   0  0  0
418  0 139   0   0   0  0  0
419  0  0   1   1   1  0  0
420  0  0   0   0   0  1  0
421  3  0   0   0   0  0  0
422  0 140   0   0   0  0  0
423  2  0   0   0   0  0  0
424  0 141   0   0   0  0  0
425  0  0   1   1   1  0  0
426  0  0   0   0   0  1  0
427  3  0   0   0   0  0  0
428  0 142   0   0   0  0  0
429  2  0   0   0   0  0  0
430  0 143   0   0   0  0  0
431  0  0   1   1   1  0  0
432  0  0   0   0   0  1  0
433  3  0   0   0   0  0  0
434  0 144   0   0   0  0  0
435  2  0   0   0   0  0  0
436  0 145   0   0   0  0  0
437  0  0   1   1   1  0  0
438  0  0   0   0   0  1  0
439  3  0   0   0   0  0  0
440  0 146   0   0   0  0  0
441  2  0   0   0   0  0  0
442  0 147   0   0   0  0  0
443  0  0   1   1   1  0  0
444  0  0   0   0   0  1  0
445  3  0   0   0   0  0  0
446  0 148   0   0   0  0  0
447  2  0   0   0   0  0  0
448  0 149   0   0   0  0  0
449  0  0   1   1   1  0  0
450  0  0   0   0   0  1  0
451  3  0   0   0   0  0  0
452  0 150   0   0   0  0  0
453  2  0   0   0   0  0  0
454  0 151   0   0   0  0  0
455  0  0   1   1   1  0  0
456  0  0   0   0   0  1  0
457  3  0   0   0   0  0  0
458  0 152   0   0   0  0  0
459  2  0   0   0   0  0  0
460  0 153   0   0   0  0  0
461  0  0   1   1   1  0  0
462  0  0   0   0   0  1  0
463  3  0   0   0   0  0  0
464  0 154   0   0   0  0  0
465  2  0   0   0   0  0  0
466  0 155   0   0   0  0  0
467  0  0   1   1   1  0  0
468  0  0   0   0   0  1  0
469  3  0   0   0   0  0  0
470  0 156   0   0   0  0  0
471  2  0   0   0   0  0  0
472  0 157   0   0   0  0  0
473  0  0   1   1   1  0  0
474  0  0   0   0   0  1  0
475  3  0   0   0   0  0  0
476  0 158   0   0   0  0  0
477  2  0   0   0   0  0  0
478  0 159   0   0   0  0  0
479  0  0   1   1   1  0  0
480  0  0   0   0   0  1  0
481  3  0   0   0   0  0  0
482  0 160   0   0   0  0  0
483  2  0   0   0   0  0  0
484  0 161   0   0   0  0  0
485  0  0   1   1   1  0  0
486  0  0   0   0   0  1  0
487  3  0   0   0   0  0  0
488  0 162   0   0   0  0  0
489  2  0   0   0   0  0  0
490  0 163   0   0   0  0  0
491  0  0   1   1   1  0  0
492  0  0   0   0   0  1  0

# Format of RF events:
# id amplitude mag_id phase_id delay freq phase
# ..        Hz   ....     ....    us   Hz   rad
[RF]
1      157.533 1 2 0 -38318.8 0
2      157.533 1 2 0 -38318.8 2.55223
3      157.533 1 2 0 -255.458 0
4      157.533 1 2 0 -255.458 4.54091
5      157.533 1 2 0 -249.072 0
6      157.533 1 2 0 -249.072 4.74154
7      157.533 1 2 0 -242.685 0
8      157.533 1 2 0 -242.685 4.94218
9      157.533 1 2 0 -236.299 0
10      157.533 1 2 0 -236.299 5.14282
11      157.533 1 2 0 -229.913 0
12      157.533 1 2 0 -229.913 5.34345
13      157.533 1 2 0 -223.526 0
14      157.533 1 2 0 -223.526 5.54409
15      157.533 1 2 0 -217.14 0
16      157.533 1 2 0 -217.14 5.74473
17      157.533 1 2 0 -210.753 0
18      157.533 1 2 0 -210.753 5.94536
19      157.533 1 2 0 -204.367 0
20      157.533 1 2 0 -204.367 6.146
21      157.533 1 2 0 -197.98 0
22      157.533 1 2 0 -197.98 0.063452
23      157.533 1 2 0 -191.594 0
24      157.533 1 2 0 -191.594 0.264089
25      157.533 1 2 0 -185.207 0
26      157.533 1 2 0 -185.207 0.464725
27      157.533 1 2 0 -178.821 0
28      157.533 1 2 0 -178.821 0.665362
29      157.533 1 2 0 -172.434 0
30      157.533 1 2 0 -172.434 0.865998
31      157.533 1 2 0 -166.048 0
32      157.533 1 2 0 -166.048 1.06663
33      157.533 1 2 0 -159.661 0
34      157.533 1 2 0 -159.661 1.26727
35      157.533 1 2 0 -153.275 0
36      157.533 1 2 0 -153.275 1.46791
37      157.533 1 2 0 -146.889 0
38      157.533 1 2 0 -146.889 1.66854
39      157.533 1 2 0 -140.502 0
40      157.533 1 2 0 -140.502 1.86918
41      157.533 1 2 0 -134.116 0
42      157.533 1 2 0 -134.116 2.06982
43      157.533 1 2 0 -127.729 0
44      157.533 1 2 0 -127.729 2.27045
45      157.533 1 2 0 -121.343 0
46      157.533 1 2 0 -121.343 2.47109
47      157.533 1 2 0 -114.956 0
48      157.533 1 2 0 -114.956 2.67173
49      157.533 1 2 0 -108.57 0
50      157.533 1 2 0 -108.57 2.87236
51      157.533 1 2 0 -102.183 0
52      157.533 1 2 0 -102.183 3.073
53      157.533 1 2 0 -95.7969 0
54      157.533 1 2 0 -95.7969 3.27364
55      157.533 1 2 0 -89.4104 0
56      157.533 1 2 0 -89.4104 3.47427
57      157.533 1 2 0 -83.024 0
58      157.533 1 2 0 -83.024 3.67491
59      157.533 1 2 0 -76.6375 0
60      157.533 1 2 0 -76.6375 3.87555
61      157.533 1 2 0 -70.2511 0
62      157.533 1 2 0 -70.2511 4.07618
63      157.533 1 2 0 -63.8646 0
64      157.533 1 2 0 -63.8646 4.27682
65      157.533 1 2 0 -57.4781 0
66      157.533 1 2 0 -57.4781 4.47746
67      157.533 1 2 0 -51.0917 0
68      157.533 1 2 0 -51.0917 4.67809
69      157.533 1 2 0 -44.7052 0
70      157.533 1 2 0 -44.7052 4.87873
71      157.533 1 2 0 -38.3188 0
72      157.533 1 2 0 -38.3188 5.07937
73      157.533 1 2 0 -31.9323 0
74      157.533 1 2 0 -31.9323 5.28
75      157.533 1 2 0 -25.5458 0
76      157.533 1 2 0 -25.5458 5.48064
77      157.533 1 2 0 -19.1594 0
78      157.533 1 2 0 -19.1594 5.68128
79      157.533 1 2 0 -12.7729 0
80      157.533 1 2 0 -12.7729 5.88191
81      157.533 1 2 0 -6.38646 0
82      157.533 1 2 0 -6.38646 6.08255
83      157.533 1 2 0 0 0
84      157.533 1 2 0 6.38646 0
85      157.533 1 2 0 6.38646 0.200637
86      157.533 1 2 0 12.7729 0
87      157.533 1 2 0 12.7729 0.401273
88      157.533 1 2 0 19.1594 0
89      157.533 1 2 0 19.1594 0.60191
90      157.533 1 2 0 25.5458 0
91      157.533 1 2 0 25.5458 0.802546
92      157.533 1 2 0 31.9323 0
93      157.533 1 2 0 31.9323 1.00318
94      157.533 1 2 0 38.3188 0
95      157.533 1 2 0 38.3188 1.20382
96      157.533 1 2 0 44.7052 0
97      157.533 1 2 0 44.7052 1.40446
98      157.533 1 2 0 51.0917 0
99      157.533 1 2 0 51.0917 1.60509
100      157.533 1 2 0 57.4781 0
101      157.533 1 2 0 57.4781 1.80573
102      157.533 1 2 0 63.8646 0
103      157.533 1 2 0 63.8646 2.00637
104      157.533 1 2 0 70.2511 0
105      157.533 1 2 0 70.2511 2.207
106      157.533 1 2 0 76.6375 0
107      157.533 1 2 0 76.6375 2.40764
108      157.533 1 2 0 83.024 0
109      157.533 1 2 0 83.024 2.60828
110      157.533 1 2 0 89.4104 0
111      157.533 1 2 0 89.4104 2.80891
112      157.533 1 2 0 95.7969 0
113      157.533 1 2 0 95.7969 3.00955
114      157.533 1 2 0 102.183 0
115      157.533 1 2 0 102.183 3.21018
116      157.533 1 2 0 108.57 0
117      157.533 1 2 0 108.57 3.41082
118      157.533 1 2 0 114.956 0
119      157.533 1 2 0 114.956 3.61146
120      157.533 1 2 0 121.343 0
121      157.533 1 2 0 121.343 3.81209
122      157.533 1 2 0 127.729 0
123      157.533 1 2 0 127.729 4.01273
124      157.533 1 2 0 134.116 0
125      157.533 1 2 0 134.116 4.21337
126      157.533 1 2 0 140.502 0
127      157.533 1 2 0 140.502 4.414
128      157.533 1 2 0 146.889 0
129      157.533 1 2 0 146.889 4.61464
130      157.533 1 2 0 153.275 0
131      157.533 1 2 0 153.275 4.81528
132      157.533 1 2 0 159.661 0
133      157.533 1 2 0 159.661 5.01591
134      157.533 1 2 0 166.048 0
135      157.533 1 2 0 166.048 5.21655
136      157.533 1 2 0 172.434 0
137      157.533 1 2 0 172.434 5.41719
138      157.533 1 2 0 178.821 0
139      157.533 1 2 0 178.821 5.61782
140      157.533 1 2 0 185.207 0
141      157.533 1 2 0 185.207 5.81846
142      157.533 1 2 0 191.594 0
143      157.533 1 2 0 191.594 6.0191
144      157.533 1 2 0 197.98 0
145      157.533 1 2 0 197.98 6.21973
146      157.533 1 2 0 204.367 0
147      157.533 1 2 0 204.367 0.137185
148      157.533 1 2 0 210.753 0
149      157.533 1 2 0 210.753 0.337821
150      157.533 1 2 0 217.14 0
151      157.533 1 2 0 217.14 0.538458
152      157.533 1 2 0 223.526 0
153      157.533 1 2 0 223.526 0.739094
154      157.533 1 2 0 229.913 0
155      157.533 1 2 0 229.913 0.939731
156      157.533 1 2 0 236.299 0
157      157.533 1 2 0 236.299 1.14037
158      157.533 1 2 0 242.685 0
159      157.533 1 2 0 242.685 1.341
160      157.533 1 2 0 249.072 0
161      157.533 1 2 0 249.072 1.54164
162      157.533 1 2 0 255.458 0
163      157.533 1 2 0 255.458 1.74228

# Format of trapezoid gradients:
# id amplitude rise flat fall delay
# ..      Hz/m   us   us   us    us
[TRAP]
 1  2.72489e+06 1000 4500 1000   0

# Format of ADC events:
# id num dwell delay freq phase
# ..  ..    ns    us   Hz   rad
[ADC]
1 1 1000000 0 0 0

# Format of delays:
# id delay (us)
[DELAYS]
1 12000000
2 100
3 3000000

# Sequence Shapes
[SHAPES]

shape_id 1
num_samples 5000
1
0
0
4997

shape_id 2
num_samples 5000
0
0
4998

