# Pulseq sequence file
# Created by MATLAB mr toolbox

# Created for Pulseq-CEST
# https://pulseq-cest.github.io/
# Created by: Kai Herz
# Created at: 23-Aug-2022 12:14:49

[VERSION]
major 1
minor 3
revision 1

[DEFINITIONS]
B0 3 
B1cwpe 3.7 
M0_offset -300 
Trec 3 
Trec_M0 12 
Tsat 0.005 
n_pulses 1 
num_meas 26 
offsets_ppm -300 -2 -1.83333333 -1.66666667 -1.5 -1.33333333 -1.16666667 -1 -0.833333333 -0.666666667 -0.5 -0.333333333 -0.166666667 0 0.166666667 0.333333333 0.5 0.666666667 0.833333333 1 1.16666667 1.33333333 1.5 1.66666667 1.83333333 2 
seq_id_string WASABI_3T_001_3p7uT_1block_5ms 
tp 0.005 

# Format of blocks:
#  #  D RF  GX  GY  GZ ADC EXT
[BLOCKS]
  1  1  0   0   0   0  0  0
  2  0  1   0   0   0  0  0
  3  0  0   1   1   1  0  0
  4  0  0   0   0   0  1  0
  5  2  0   0   0   0  0  0
  6  0  2   0   0   0  0  0
  7  0  0   1   1   1  0  0
  8  0  0   0   0   0  1  0
  9  2  0   0   0   0  0  0
 10  0  3   0   0   0  0  0
 11  0  0   1   1   1  0  0
 12  0  0   0   0   0  1  0
 13  2  0   0   0   0  0  0
 14  0  4   0   0   0  0  0
 15  0  0   1   1   1  0  0
 16  0  0   0   0   0  1  0
 17  2  0   0   0   0  0  0
 18  0  5   0   0   0  0  0
 19  0  0   1   1   1  0  0
 20  0  0   0   0   0  1  0
 21  2  0   0   0   0  0  0
 22  0  6   0   0   0  0  0
 23  0  0   1   1   1  0  0
 24  0  0   0   0   0  1  0
 25  2  0   0   0   0  0  0
 26  0  7   0   0   0  0  0
 27  0  0   1   1   1  0  0
 28  0  0   0   0   0  1  0
 29  2  0   0   0   0  0  0
 30  0  8   0   0   0  0  0
 31  0  0   1   1   1  0  0
 32  0  0   0   0   0  1  0
 33  2  0   0   0   0  0  0
 34  0  9   0   0   0  0  0
 35  0  0   1   1   1  0  0
 36  0  0   0   0   0  1  0
 37  2  0   0   0   0  0  0
 38  0 10   0   0   0  0  0
 39  0  0   1   1   1  0  0
 40  0  0   0   0   0  1  0
 41  2  0   0   0   0  0  0
 42  0 11   0   0   0  0  0
 43  0  0   1   1   1  0  0
 44  0  0   0   0   0  1  0
 45  2  0   0   0   0  0  0
 46  0 12   0   0   0  0  0
 47  0  0   1   1   1  0  0
 48  0  0   0   0   0  1  0
 49  2  0   0   0   0  0  0
 50  0 13   0   0   0  0  0
 51  0  0   1   1   1  0  0
 52  0  0   0   0   0  1  0
 53  2  0   0   0   0  0  0
 54  0 14   0   0   0  0  0
 55  0  0   1   1   1  0  0
 56  0  0   0   0   0  1  0
 57  2  0   0   0   0  0  0
 58  0 15   0   0   0  0  0
 59  0  0   1   1   1  0  0
 60  0  0   0   0   0  1  0
 61  2  0   0   0   0  0  0
 62  0 16   0   0   0  0  0
 63  0  0   1   1   1  0  0
 64  0  0   0   0   0  1  0
 65  2  0   0   0   0  0  0
 66  0 17   0   0   0  0  0
 67  0  0   1   1   1  0  0
 68  0  0   0   0   0  1  0
 69  2  0   0   0   0  0  0
 70  0 18   0   0   0  0  0
 71  0  0   1   1   1  0  0
 72  0  0   0   0   0  1  0
 73  2  0   0   0   0  0  0
 74  0 19   0   0   0  0  0
 75  0  0   1   1   1  0  0
 76  0  0   0   0   0  1  0
 77  2  0   0   0   0  0  0
 78  0 20   0   0   0  0  0
 79  0  0   1   1   1  0  0
 80  0  0   0   0   0  1  0
 81  2  0   0   0   0  0  0
 82  0 21   0   0   0  0  0
 83  0  0   1   1   1  0  0
 84  0  0   0   0   0  1  0
 85  2  0   0   0   0  0  0
 86  0 22   0   0   0  0  0
 87  0  0   1   1   1  0  0
 88  0  0   0   0   0  1  0
 89  2  0   0   0   0  0  0
 90  0 23   0   0   0  0  0
 91  0  0   1   1   1  0  0
 92  0  0   0   0   0  1  0
 93  2  0   0   0   0  0  0
 94  0 24   0   0   0  0  0
 95  0  0   1   1   1  0  0
 96  0  0   0   0   0  1  0
 97  2  0   0   0   0  0  0
 98  0 25   0   0   0  0  0
 99  0  0   1   1   1  0  0
100  0  0   0   0   0  1  0
101  2  0   0   0   0  0  0
102  0 26   0   0   0  0  0
103  0  0   1   1   1  0  0
104  0  0   0   0   0  1  0

# Format of RF events:
# id amplitude mag_id phase_id delay freq phase
# ..        Hz   ....     ....    us   Hz   rad
[RF]
1      157.533 1 2 100 -38318.8 0
2      157.533 1 2 100 -255.458 0
3      157.533 1 2 100 -234.17 0
4      157.533 1 2 100 -212.882 0
5      157.533 1 2 100 -191.594 0
6      157.533 1 2 100 -170.306 0
7      157.533 1 2 100 -149.017 0
8      157.533 1 2 100 -127.729 0
9      157.533 1 2 100 -106.441 0
10      157.533 1 2 100 -85.1528 0
11      157.533 1 2 100 -63.8646 0
12      157.533 1 2 100 -42.5764 0
13      157.533 1 2 100 -21.2882 0
14      157.533 1 2 100 0 0
15      157.533 1 2 100 21.2882 0
16      157.533 1 2 100 42.5764 0
17      157.533 1 2 100 63.8646 0
18      157.533 1 2 100 85.1528 0
19      157.533 1 2 100 106.441 0
20      157.533 1 2 100 127.729 0
21      157.533 1 2 100 149.017 0
22      157.533 1 2 100 170.306 0
23      157.533 1 2 100 191.594 0
24      157.533 1 2 100 212.882 0
25      157.533 1 2 100 234.17 0
26      157.533 1 2 100 255.458 0

# Format of trapezoid gradients:
# id amplitude rise flat fall delay
# ..      Hz/m   us   us   us    us
[TRAP]
 1  1.36243e+06 1000 4500 1000   0

# Format of ADC events:
# id num dwell delay freq phase
# ..  ..    ns    us   Hz   rad
[ADC]
1 1 1000000 0 0 0

# Format of delays:
# id delay (us)
[DELAYS]
1 12000000
2 3000000

# Sequence Shapes
[SHAPES]

shape_id 1
num_samples 5030
1
0
0
4997
-1
0
0
27

shape_id 2
num_samples 5030
0
0
5028

