# Pulseq sequence file
# Created by PyPulseq

# Created for Pulseq-CEST
# https://pulseq-cest.github.io/
# Created by: https://github.com/pulseq-cest/BMsim_challenge
# Created at: 22-Apr-2023 09:07:26

[VERSION]
major 1
minor 4
revision 0

[DEFINITIONS]
AdcRasterTime 1e-07 
B0 3 
B1pa 1.78 
B1rms 1.99619393 
BlockDurationRaster 1e-05 
FREQ 127.7292 
GradientRasterTime 1e-05 
M0_offset -300 
RadiofrequencyRasterTime 1e-06 
Trec 3.5 
Trec_M0 3.5 
Tsat 1.975 
n_pulses 36 
num_meas 302 
offsets_ppm -300 -15 -14.9 -14.8 -14.7 -14.6 -14.5 -14.4 -14.3 -14.2 -14.1 -14 -13.9 -13.8 -13.7 -13.6 -13.5 -13.4 -13.3 -13.2 -13.1 -13 -12.9 -12.8 -12.7 -12.6 -12.5 -12.4 -12.3 -12.2 -12.1 -12 -11.9 -11.8 -11.7 -11.6 -11.5 -11.4 -11.3 -11.2 -11.1 -11 -10.9 -10.8 -10.7 -10.6 -10.5 -10.4 -10.3 -10.2 -10.1 -10 -9.9 -9.8 -9.7 -9.6 -9.5 -9.4 -9.3 -9.2 -9.1 -9 -8.9 -8.8 -8.7 -8.6 -8.5 -8.4 -8.3 -8.2 -8.1 -8 -7.9 -7.8 -7.7 -7.6 -7.5 -7.4 -7.3 -7.2 -7.1 -7 -6.9 -6.8 -6.7 -6.6 -6.5 -6.4 -6.3 -6.2 -6.1 -6 -5.9 -5.8 -5.7 -5.6 -5.5 -5.4 -5.3 -5.2 -5.1 -5 -4.9 -4.8 -4.7 -4.6 -4.5 -4.4 -4.3 -4.2 -4.1 -4 -3.9 -3.8 -3.7 -3.6 -3.5 -3.4 -3.3 -3.2 -3.1 -3 -2.9 -2.8 -2.7 -2.6 -2.5 -2.4 -2.3 -2.2 -2.1 -2 -1.9 -1.8 -1.7 -1.6 -1.5 -1.4 -1.3 -1.2 -1.1 -1 -0.9 -0.8 -0.7 -0.6 -0.5 -0.4 -0.3 -0.2 -0.1 0 0.1 0.2 0.3 0.4 0.5 0.6 0.7 0.8 0.9 1 1.1 1.2 1.3 1.4 1.5 1.6 1.7 1.8 1.9 2 2.1 2.2 2.3 2.4 2.5 2.6 2.7 2.8 2.9 3 3.1 3.2 3.3 3.4 3.5 3.6 3.7 3.8 3.9 4 4.1 4.2 4.3 4.4 4.5 4.6 4.7 4.8 4.9 5 5.1 5.2 5.3 5.4 5.5 5.6 5.7 5.8 5.9 6 6.1 6.2 6.3 6.4 6.5 6.6 6.7 6.8 6.9 7 7.1 7.2 7.3 7.4 7.5 7.6 7.7 7.8 7.9 8 8.1 8.2 8.3 8.4 8.5 8.6 8.7 8.8 8.9 9 9.1 9.2 9.3 9.4 9.5 9.6 9.7 9.8 9.9 10 10.1 10.2 10.3 10.4 10.5 10.6 10.7 10.8 10.9 11 11.1 11.2 11.3 11.4 11.5 11.6 11.7 11.8 11.9 12 12.1 12.2 12.3 12.4 12.5 12.6 12.7 12.8 12.9 13 13.1 13.2 13.3 13.4 13.5 13.6 13.7 13.8 13.9 14 14.1 14.2 14.3 14.4 14.5 14.6 14.7 14.8 14.9 15 
seq_id_string case_6_create_sequence_py_pulseq14 
td 0.005 
tp 0.05 

# Format of blocks:
# NUM DUR RF  GX  GY  GZ  ADC  EXT
[BLOCKS]
    1 350000   0   0   0   0  0  0
    2 5000   1   0   0   0  0  0
    3 500   0   0   0   0  0  0
    4 5000   2   0   0   0  0  0
    5 500   0   0   0   0  0  0
    6 5000   3   0   0   0  0  0
    7 500   0   0   0   0  0  0
    8 5000   4   0   0   0  0  0
    9 500   0   0   0   0  0  0
   10 5000   5   0   0   0  0  0
   11 500   0   0   0   0  0  0
   12 5000   6   0   0   0  0  0
   13 500   0   0   0   0  0  0
   14 5000   7   0   0   0  0  0
   15 500   0   0   0   0  0  0
   16 5000   8   0   0   0  0  0
   17 500   0   0   0   0  0  0
   18 5000   9   0   0   0  0  0
   19 500   0   0   0   0  0  0
   20 5000  10   0   0   0  0  0
   21 500   0   0   0   0  0  0
   22 5000  11   0   0   0  0  0
   23 500   0   0   0   0  0  0
   24 5000  12   0   0   0  0  0
   25 500   0   0   0   0  0  0
   26 5000  13   0   0   0  0  0
   27 500   0   0   0   0  0  0
   28 5000  14   0   0   0  0  0
   29 500   0   0   0   0  0  0
   30 5000  15   0   0   0  0  0
   31 500   0   0   0   0  0  0
   32 5000  16   0   0   0  0  0
   33 500   0   0   0   0  0  0
   34 5000  17   0   0   0  0  0
   35 500   0   0   0   0  0  0
   36 5000  18   0   0   0  0  0
   37 500   0   0   0   0  0  0
   38 5000  19   0   0   0  0  0
   39 500   0   0   0   0  0  0
   40 5000  20   0   0   0  0  0
   41 500   0   0   0   0  0  0
   42 5000  21   0   0   0  0  0
   43 500   0   0   0   0  0  0
   44 5000  22   0   0   0  0  0
   45 500   0   0   0   0  0  0
   46 5000  23   0   0   0  0  0
   47 500   0   0   0   0  0  0
   48 5000  24   0   0   0  0  0
   49 500   0   0   0   0  0  0
   50 5000  25   0   0   0  0  0
   51 500   0   0   0   0  0  0
   52 5000  26   0   0   0  0  0
   53 500   0   0   0   0  0  0
   54 5000  27   0   0   0  0  0
   55 500   0   0   0   0  0  0
   56 5000  28   0   0   0  0  0
   57 500   0   0   0   0  0  0
   58 5000  29   0   0   0  0  0
   59 500   0   0   0   0  0  0
   60 5000  30   0   0   0  0  0
   61 500   0   0   0   0  0  0
   62 5000  31   0   0   0  0  0
   63 500   0   0   0   0  0  0
   64 5000  32   0   0   0  0  0
   65 500   0   0   0   0  0  0
   66 5000  33   0   0   0  0  0
   67 500   0   0   0   0  0  0
   68 5000  34   0   0   0  0  0
   69 500   0   0   0   0  0  0
   70 5000  35   0   0   0  0  0
   71 500   0   0   0   0  0  0
   72 5000  36   0   0   0  0  0
   73 650   0   1   1   1  0  0
   74 100   0   0   0   0  1  0
   75 350000   0   0   0   0  0  0
   76 5000  37   0   0   0  0  0
   77 500   0   0   0   0  0  0
   78 5000  38   0   0   0  0  0
   79 500   0   0   0   0  0  0
   80 5000  39   0   0   0  0  0
   81 500   0   0   0   0  0  0
   82 5000  40   0   0   0  0  0
   83 500   0   0   0   0  0  0
   84 5000  41   0   0   0  0  0
   85 500   0   0   0   0  0  0
   86 5000  42   0   0   0  0  0
   87 500   0   0   0   0  0  0
   88 5000  43   0   0   0  0  0
   89 500   0   0   0   0  0  0
   90 5000  44   0   0   0  0  0
   91 500   0   0   0   0  0  0
   92 5000  45   0   0   0  0  0
   93 500   0   0   0   0  0  0
   94 5000  46   0   0   0  0  0
   95 500   0   0   0   0  0  0
   96 5000  47   0   0   0  0  0
   97 500   0   0   0   0  0  0
   98 5000  48   0   0   0  0  0
   99 500   0   0   0   0  0  0
  100 5000  49   0   0   0  0  0
  101 500   0   0   0   0  0  0
  102 5000  50   0   0   0  0  0
  103 500   0   0   0   0  0  0
  104 5000  51   0   0   0  0  0
  105 500   0   0   0   0  0  0
  106 5000  52   0   0   0  0  0
  107 500   0   0   0   0  0  0
  108 5000  53   0   0   0  0  0
  109 500   0   0   0   0  0  0
  110 5000  54   0   0   0  0  0
  111 500   0   0   0   0  0  0
  112 5000  55   0   0   0  0  0
  113 500   0   0   0   0  0  0
  114 5000  56   0   0   0  0  0
  115 500   0   0   0   0  0  0
  116 5000  57   0   0   0  0  0
  117 500   0   0   0   0  0  0
  118 5000  58   0   0   0  0  0
  119 500   0   0   0   0  0  0
  120 5000  59   0   0   0  0  0
  121 500   0   0   0   0  0  0
  122 5000  60   0   0   0  0  0
  123 500   0   0   0   0  0  0
  124 5000  61   0   0   0  0  0
  125 500   0   0   0   0  0  0
  126 5000  62   0   0   0  0  0
  127 500   0   0   0   0  0  0
  128 5000  63   0   0   0  0  0
  129 500   0   0   0   0  0  0
  130 5000  64   0   0   0  0  0
  131 500   0   0   0   0  0  0
  132 5000  65   0   0   0  0  0
  133 500   0   0   0   0  0  0
  134 5000  66   0   0   0  0  0
  135 500   0   0   0   0  0  0
  136 5000  67   0   0   0  0  0
  137 500   0   0   0   0  0  0
  138 5000  68   0   0   0  0  0
  139 500   0   0   0   0  0  0
  140 5000  69   0   0   0  0  0
  141 500   0   0   0   0  0  0
  142 5000  70   0   0   0  0  0
  143 500   0   0   0   0  0  0
  144 5000  71   0   0   0  0  0
  145 500   0   0   0   0  0  0
  146 5000  72   0   0   0  0  0
  147 650   0   1   1   1  0  0
  148 100   0   0   0   0  1  0
  149 350000   0   0   0   0  0  0
  150 5000  73   0   0   0  0  0
  151 500   0   0   0   0  0  0
  152 5000  74   0   0   0  0  0
  153 500   0   0   0   0  0  0
  154 5000  75   0   0   0  0  0
  155 500   0   0   0   0  0  0
  156 5000  76   0   0   0  0  0
  157 500   0   0   0   0  0  0
  158 5000  77   0   0   0  0  0
  159 500   0   0   0   0  0  0
  160 5000  78   0   0   0  0  0
  161 500   0   0   0   0  0  0
  162 5000  79   0   0   0  0  0
  163 500   0   0   0   0  0  0
  164 5000  80   0   0   0  0  0
  165 500   0   0   0   0  0  0
  166 5000  81   0   0   0  0  0
  167 500   0   0   0   0  0  0
  168 5000  82   0   0   0  0  0
  169 500   0   0   0   0  0  0
  170 5000  83   0   0   0  0  0
  171 500   0   0   0   0  0  0
  172 5000  84   0   0   0  0  0
  173 500   0   0   0   0  0  0
  174 5000  85   0   0   0  0  0
  175 500   0   0   0   0  0  0
  176 5000  86   0   0   0  0  0
  177 500   0   0   0   0  0  0
  178 5000  87   0   0   0  0  0
  179 500   0   0   0   0  0  0
  180 5000  88   0   0   0  0  0
  181 500   0   0   0   0  0  0
  182 5000  89   0   0   0  0  0
  183 500   0   0   0   0  0  0
  184 5000  90   0   0   0  0  0
  185 500   0   0   0   0  0  0
  186 5000  91   0   0   0  0  0
  187 500   0   0   0   0  0  0
  188 5000  92   0   0   0  0  0
  189 500   0   0   0   0  0  0
  190 5000  93   0   0   0  0  0
  191 500   0   0   0   0  0  0
  192 5000  94   0   0   0  0  0
  193 500   0   0   0   0  0  0
  194 5000  95   0   0   0  0  0
  195 500   0   0   0   0  0  0
  196 5000  96   0   0   0  0  0
  197 500   0   0   0   0  0  0
  198 5000  97   0   0   0  0  0
  199 500   0   0   0   0  0  0
  200 5000  98   0   0   0  0  0
  201 500   0   0   0   0  0  0
  202 5000  99   0   0   0  0  0
  203 500   0   0   0   0  0  0
  204 5000 100   0   0   0  0  0
  205 500   0   0   0   0  0  0
  206 5000 101   0   0   0  0  0
  207 500   0   0   0   0  0  0
  208 5000 102   0   0   0  0  0
  209 500   0   0   0   0  0  0
  210 5000 103   0   0   0  0  0
  211 500   0   0   0   0  0  0
  212 5000 104   0   0   0  0  0
  213 500   0   0   0   0  0  0
  214 5000 105   0   0   0  0  0
  215 500   0   0   0   0  0  0
  216 5000 106   0   0   0  0  0
  217 500   0   0   0   0  0  0
  218 5000 107   0   0   0  0  0
  219 500   0   0   0   0  0  0
  220 5000 108   0   0   0  0  0
  221 650   0   1   1   1  0  0
  222 100   0   0   0   0  1  0
  223 350000   0   0   0   0  0  0
  224 5000 109   0   0   0  0  0
  225 500   0   0   0   0  0  0
  226 5000 110   0   0   0  0  0
  227 500   0   0   0   0  0  0
  228 5000 111   0   0   0  0  0
  229 500   0   0   0   0  0  0
  230 5000 112   0   0   0  0  0
  231 500   0   0   0   0  0  0
  232 5000 113   0   0   0  0  0
  233 500   0   0   0   0  0  0
  234 5000 114   0   0   0  0  0
  235 500   0   0   0   0  0  0
  236 5000 115   0   0   0  0  0
  237 500   0   0   0   0  0  0
  238 5000 116   0   0   0  0  0
  239 500   0   0   0   0  0  0
  240 5000 117   0   0   0  0  0
  241 500   0   0   0   0  0  0
  242 5000 118   0   0   0  0  0
  243 500   0   0   0   0  0  0
  244 5000 119   0   0   0  0  0
[RF]
1      141.667 1 2 3 0 -38318.8 0
2      141.667 1 2 3 0 -38318.8 2.11271
3      141.667 1 2 3 0 -38318.8 4.22542
4      141.667 1 2 3 0 -38318.8 0.0549402
5      141.667 1 2 3 0 -38318.8 2.16765
6      141.667 1 2 3 0 -38318.8 4.28036
7      141.667 1 2 3 0 -38318.8 0.10988
8      141.667 1 2 3 0 -38318.8 2.22259
9      141.667 1 2 3 0 -38318.8 4.3353
10      141.667 1 2 3 0 -38318.8 0.164821
11      141.667 1 2 3 0 -38318.8 2.27753
12      141.667 1 2 3 0 -38318.8 4.39024
13      141.667 1 2 3 0 -38318.8 0.219761
14      141.667 1 2 3 0 -38318.8 2.33247
15      141.667 1 2 3 0 -38318.8 4.44518
16      141.667 1 2 3 0 -38318.8 0.274701
17      141.667 1 2 3 0 -38318.8 2.38741
18      141.667 1 2 3 0 -38318.8 4.50012
19      141.667 1 2 3 0 -38318.8 0.329641
20      141.667 1 2 3 0 -38318.8 2.44235
21      141.667 1 2 3 0 -38318.8 4.55506
22      141.667 1 2 3 0 -38318.8 0.384581
23      141.667 1 2 3 0 -38318.8 2.49729
24      141.667 1 2 3 0 -38318.8 4.61
25      141.667 1 2 3 0 -38318.8 0.439521
26      141.667 1 2 3 0 -38318.8 2.55223
27      141.667 1 2 3 0 -38318.8 4.66494
28      141.667 1 2 3 0 -38318.8 0.494462
29      141.667 1 2 3 0 -38318.8 2.60717
30      141.667 1 2 3 0 -38318.8 4.71988
31      141.667 1 2 3 0 -38318.8 0.549402
32      141.667 1 2 3 0 -38318.8 2.66211
33      141.667 1 2 3 0 -38318.8 4.77482
34      141.667 1 2 3 0 -38318.8 0.604342
35      141.667 1 2 3 0 -38318.8 2.71705
36      141.667 1 2 3 0 -38318.8 4.82976
37      141.667 1 2 3 0 -1915.94 0
38      141.667 1 2 3 0 -1915.94 3.87555
39      141.667 1 2 3 0 -1915.94 1.46791
40      141.667 1 2 3 0 -1915.94 5.34345
41      141.667 1 2 3 0 -1915.94 2.93582
42      141.667 1 2 3 0 -1915.94 0.528177
43      141.667 1 2 3 0 -1915.94 4.40372
44      141.667 1 2 3 0 -1915.94 1.99609
45      141.667 1 2 3 0 -1915.94 5.87163
46      141.667 1 2 3 0 -1915.94 3.46399
47      141.667 1 2 3 0 -1915.94 1.05635
48      141.667 1 2 3 0 -1915.94 4.9319
49      141.667 1 2 3 0 -1915.94 2.52426
50      141.667 1 2 3 0 -1915.94 0.116623
51      141.667 1 2 3 0 -1915.94 3.99217
52      141.667 1 2 3 0 -1915.94 1.58453
53      141.667 1 2 3 0 -1915.94 5.46008
54      141.667 1 2 3 0 -1915.94 3.05244
55      141.667 1 2 3 0 -1915.94 0.644801
56      141.667 1 2 3 0 -1915.94 4.52035
57      141.667 1 2 3 0 -1915.94 2.11271
58      141.667 1 2 3 0 -1915.94 5.98826
59      141.667 1 2 3 0 -1915.94 3.58062
60      141.667 1 2 3 0 -1915.94 1.17298
61      141.667 1 2 3 0 -1915.94 5.04852
62      141.667 1 2 3 0 -1915.94 2.64089
63      141.667 1 2 3 0 -1915.94 0.233247
64      141.667 1 2 3 0 -1915.94 4.10879
65      141.667 1 2 3 0 -1915.94 1.70115
66      141.667 1 2 3 0 -1915.94 5.5767
67      141.667 1 2 3 0 -1915.94 3.16906
68      141.667 1 2 3 0 -1915.94 0.761424
69      141.667 1 2 3 0 -1915.94 4.63697
70      141.667 1 2 3 0 -1915.94 2.22933
71      141.667 1 2 3 0 -1915.94 6.10488
72      141.667 1 2 3 0 -1915.94 3.69724
73      141.667 1 2 3 0 -1903.17 0
74      141.667 1 2 3 0 -1903.17 3.8916
75      141.667 1 2 3 0 -1903.17 1.50001
76      141.667 1 2 3 0 -1903.17 5.39161
77      141.667 1 2 3 0 -1903.17 3.00002
78      141.667 1 2 3 0 -1903.17 0.608432
79      141.667 1 2 3 0 -1903.17 4.50003
80      141.667 1 2 3 0 -1903.17 2.10844
81      141.667 1 2 3 0 -1903.17 6.00004
82      141.667 1 2 3 0 -1903.17 3.60845
83      141.667 1 2 3 0 -1903.17 1.21686
84      141.667 1 2 3 0 -1903.17 5.10846
85      141.667 1 2 3 0 -1903.17 2.71687
86      141.667 1 2 3 0 -1903.17 0.325285
87      141.667 1 2 3 0 -1903.17 4.21688
88      141.667 1 2 3 0 -1903.17 1.8253
89      141.667 1 2 3 0 -1903.17 5.71689
90      141.667 1 2 3 0 -1903.17 3.3253
91      141.667 1 2 3 0 -1903.17 0.933717
92      141.667 1 2 3 0 -1903.17 4.82531
93      141.667 1 2 3 0 -1903.17 2.43373
94      141.667 1 2 3 0 -1903.17 0.0421392
95      141.667 1 2 3 0 -1903.17 3.93374
96      141.667 1 2 3 0 -1903.17 1.54215
97      141.667 1 2 3 0 -1903.17 5.43375
98      141.667 1 2 3 0 -1903.17 3.04216
99      141.667 1 2 3 0 -1903.17 0.650571
100      141.667 1 2 3 0 -1903.17 4.54217
101      141.667 1 2 3 0 -1903.17 2.15058
102      141.667 1 2 3 0 -1903.17 6.04218
103      141.667 1 2 3 0 -1903.17 3.65059
104      141.667 1 2 3 0 -1903.17 1.259
105      141.667 1 2 3 0 -1903.17 5.1506
106      141.667 1 2 3 0 -1903.17 2.75901
107      141.667 1 2 3 0 -1903.17 0.367425
108      141.667 1 2 3 0 -1903.17 4.25902
109      141.667 1 2 3 0 -1890.39 0
110      141.667 1 2 3 0 -1890.39 3.90765
111      141.667 1 2 3 0 -1890.39 1.53211
112      141.667 1 2 3 0 -1890.39 5.43976
113      141.667 1 2 3 0 -1890.39 3.06422
114      141.667 1 2 3 0 -1890.39 0.688686
115      141.667 1 2 3 0 -1890.39 4.59633
116      141.667 1 2 3 0 -1890.39 2.2208
117      141.667 1 2 3 0 -1890.39 6.12845
118      141.667 1 2 3 0 -1890.39 3.75291
119      141.667 1 2 3 0 -1890.39 1.37737
120      141.667 1 2 3 0 -1890.39 5.28502
121      141.667 1 2 3 0 -1890.39 2.90948
122      141.667 1 2 3 0 -1890.39 0.533948
123      141.667 1 2 3 0 -1890.39 4.4416
124      141.667 1 2 3 0 -1890.39 2.06606
125      141.667 1 2 3 0 -1890.39 5.97371
126      141.667 1 2 3 0 -1890.39 3.59817
127      141.667 1 2 3 0 -1890.39 1.22263
128      141.667 1 2 3 0 -1890.39 5.13028
129      141.667 1 2 3 0 -1890.39 2.75475
130      141.667 1 2 3 0 -1890.39 0.379209
131      141.667 1 2 3 0 -1890.39 4.28686
132      141.667 1 2 3 0 -1890.39 1.91132
133      141.667 1 2 3 0 -1890.39 5.81897
134      141.667 1 2 3 0 -1890.39 3.44343
135      141.667 1 2 3 0 -1890.39 1.0679
136      141.667 1 2 3 0 -1890.39 4.97554
137      141.667 1 2 3 0 -1890.39 2.60001
138      141.667 1 2 3 0 -1890.39 0.22447
139      141.667 1 2 3 0 -1890.39 4.13212
140      141.667 1 2 3 0 -1890.39 1.75658
141      141.667 1 2 3 0 -1890.39 5.66423
142      141.667 1 2 3 0 -1890.39 3.28869
143      141.667 1 2 3 0 -1890.39 0.913156
144      141.667 1 2 3 0 -1890.39 4.8208
145      141.667 1 2 3 0 -1877.62 0
146      141.667 1 2 3 0 -1877.62 3.9237
147      141.667 1 2 3 0 -1877.62 1.56421
148      141.667 1 2 3 0 -1877.62 5.48791
149      141.667 1 2 3 0 -1877.62 3.12843
150      141.667 1 2 3 0 -1877.62 0.768941
151      141.667 1 2 3 0 -1877.62 4.69264
152      141.667 1 2 3 0 -1877.62 2.33315
153      141.667 1 2 3 0 -1877.62 6.25685
154      141.667 1 2 3 0 -1877.62 3.89737
155      141.667 1 2 3 0 -1877.62 1.53788
156      141.667 1 2 3 0 -1877.62 5.46158
157      141.667 1 2 3 0 -1877.62 3.1021
158      141.667 1 2 3 0 -1877.62 0.74261
159      141.667 1 2 3 0 -1877.62 4.66631
160      141.667 1 2 3 0 -1877.62 2.30682
161      141.667 1 2 3 0 -1877.62 6.23052
162      141.667 1 2 3 0 -1877.62 3.87104
163      141.667 1 2 3 0 -1877.62 1.51155
164      141.667 1 2 3 0 -1877.62 5.43525
165      141.667 1 2 3 0 -1877.62 3.07576
166      141.667 1 2 3 0 -1877.62 0.716278
167      141.667 1 2 3 0 -1877.62 4.63998
168      141.667 1 2 3 0 -1877.62 2.28049
169      141.667 1 2 3 0 -1877.62 6.20419
170      141.667 1 2 3 0 -1877.62 3.8447
171      141.667 1 2 3 0 -1877.62 1.48522
172      141.667 1 2 3 0 -1877.62 5.40892
173      141.667 1 2 3 0 -1877.62 3.04943
174      141.667 1 2 3 0 -1877.62 0.689947
175      141.667 1 2 3 0 -1877.62 4.61365
176      141.667 1 2 3 0 -1877.62 2.25416
177      141.667 1 2 3 0 -1877.62 6.17786
178      141.667 1 2 3 0 -1877.62 3.81837
179      141.667 1 2 3 0 -1877.62 1.45889
180      141.667 1 2 3 0 -1877.62 5.38259
181      141.667 1 2 3 0 -1864.85 0
182      141.667 1 2 3 0 -1864.85 3.93975
183      141.667 1 2 3 0 -1864.85 1.59632
184      141.667 1 2 3 0 -1864.85 5.53607
185      141.667 1 2 3 0 -1864.85 3.19263
186      141.667 1 2 3 0 -1864.85 0.849196
187      141.667 1 2 3 0 -1864.85 4.78895
188      141.667 1 2 3 0 -1864.85 2.44551
189      141.667 1 2 3 0 -1864.85 0.102076
190      141.667 1 2 3 0 -1864.85 4.04183
191      141.667 1 2 3 0 -1864.85 1.69839
192      141.667 1 2 3 0 -1864.85 5.63814
193      141.667 1 2 3 0 -1864.85 3.29471
194      141.667 1 2 3 0 -1864.85 0.951272
195      141.667 1 2 3 0 -1864.85 4.89102
196      141.667 1 2 3 0 -1864.85 2.54759
197      141.667 1 2 3 0 -1864.85 0.204152
198      141.667 1 2 3 0 -1864.85 4.1439
199      141.667 1 2 3 0 -1864.85 1.80047
200      141.667 1 2 3 0 -1864.85 5.74022
201      141.667 1 2 3 0 -1864.85 3.39678
202      141.667 1 2 3 0 -1864.85 1.05335
203      141.667 1 2 3 0 -1864.85 4.9931
204      141.667 1 2 3 0 -1864.85 2.64966
205      141.667 1 2 3 0 -1864.85 0.306228
206      141.667 1 2 3 0 -1864.85 4.24598
207      141.667 1 2 3 0 -1864.85 1.90254
208      141.667 1 2 3 0 -1864.85 5.84229
209      141.667 1 2 3 0 -1864.85 3.49886
210      141.667 1 2 3 0 -1864.85 1.15542
211      141.667 1 2 3 0 -1864.85 5.09517
212      141.667 1 2 3 0 -1864.85 2.75174
213      141.667 1 2 3 0 -1864.85 0.408304
214      141.667 1 2 3 0 -1864.85 4.34805
215      141.667 1 2 3 0 -1864.85 2.00462
216      141.667 1 2 3 0 -1864.85 5.94437
217      141.667 1 2 3 0 -1852.07 0
218      141.667 1 2 3 0 -1852.07 3.9558
219      141.667 1 2 3 0 -1852.07 1.62842
220      141.667 1 2 3 0 -1852.07 5.58422
221      141.667 1 2 3 0 -1852.07 3.25683
222      141.667 1 2 3 0 -1852.07 0.92945
223      141.667 1 2 3 0 -1852.07 4.88525
224      141.667 1 2 3 0 -1852.07 2.55787
225      141.667 1 2 3 0 -1852.07 0.230483
226      141.667 1 2 3 0 -1852.07 4.18628
227      141.667 1 2 3 0 -1852.07 1.8589
228      141.667 1 2 3 0 -1852.07 5.8147
229      141.667 1 2 3 0 -1852.07 3.48732
230      141.667 1 2 3 0 -1852.07 1.15993
231      141.667 1 2 3 0 -1852.07 5.11573
232      141.667 1 2 3 0 -1852.07 2.78835
233      141.667 1 2 3 0 -1852.07 0.460967
234      141.667 1 2 3 0 -1852.07 4.41677
235      141.667 1 2 3 0 -1852.07 2.08938
236      141.667 1 2 3 0 -1852.07 6.04519
237      141.667 1 2 3 0 -1852.07 3.7178
238      141.667 1 2 3 0 -1852.07 1.39042
239      141.667 1 2 3 0 -1852.07 5.34622
240      141.667 1 2 3 0 -1852.07 3.01883
241      141.667 1 2 3 0 -1852.07 0.69145
242      141.667 1 2 3 0 -1852.07 4.64725
243      141.667 1 2 3 0 -1852.07 2.31987
244      141.667 1 2 3 0 -1852.07 6.27567
245      141.667 1 2 3 0 -1852.07 3.94828
246      141.667 1 2 3 0 -1852.07 1.6209
247      141.667 1 2 3 0 -1852.07 5.5767
248      141.667 1 2 3 0 -1852.07 3.24932
249      141.667 1 2 3 0 -1852.07 0.921933
250      141.667 1 2 3 0 -1852.07 4.87773
251      141.667 1 2 3 0 -1852.07 2.55035
252      141.667 1 2 3 0 -1852.07 0.222966
253      141.667 1 2 3 0 -1839.3 0
254      141.667 1 2 3 0 -1839.3 3.97185
255      141.667 1 2 3 0 -1839.3 1.66052
256      141.667 1 2 3 0 -1839.3 5.63237
257      141.667 1 2 3 0 -1839.3 3.32104
258      141.667 1 2 3 0 -1839.3 1.0097
259      141.667 1 2 3 0 -1839.3 4.98156
260      141.667 1 2 3 0 -1839.3 2.67022
261      141.667 1 2 3 0 -1839.3 0.358891
262      141.667 1 2 3 0 -1839.3 4.33074
263      141.667 1 2 3 0 -1839.3 2.01941
264      141.667 1 2 3 0 -1839.3 5.99126
265      141.667 1 2 3 0 -1839.3 3.67993
266      141.667 1 2 3 0 -1839.3 1.3686
267      141.667 1 2 3 0 -1839.3 5.34045
268      141.667 1 2 3 0 -1839.3 3.02911
269      141.667 1 2 3 0 -1839.3 0.717781
270      141.667 1 2 3 0 -1839.3 4.68963
271      141.667 1 2 3 0 -1839.3 2.3783
272      141.667 1 2 3 0 -1839.3 0.0669673
273      141.667 1 2 3 0 -1839.3 4.03882
274      141.667 1 2 3 0 -1839.3 1.72749
275      141.667 1 2 3 0 -1839.3 5.69934
276      141.667 1 2 3 0 -1839.3 3.38801
277      141.667 1 2 3 0 -1839.3 1.07667
278      141.667 1 2 3 0 -1839.3 5.04852
279      141.667 1 2 3 0 -1839.3 2.73719
280      141.667 1 2 3 0 -1839.3 0.425858
281      141.667 1 2 3 0 -1839.3 4.39771
282      141.667 1 2 3 0 -1839.3 2.08638
283      141.667 1 2 3 0 -1839.3 6.05823
284      141.667 1 2 3 0 -1839.3 3.7469
285      141.667 1 2 3 0 -1839.3 1.43556
286      141.667 1 2 3 0 -1839.3 5.40742
287      141.667 1 2 3 0 -1839.3 3.09608
288      141.667 1 2 3 0 -1839.3 0.784749
289      141.667 1 2 3 0 -1826.53 0
290      141.667 1 2 3 0 -1826.53 3.9879
291      141.667 1 2 3 0 -1826.53 1.69262
292      141.667 1 2 3 0 -1826.53 5.68052
293      141.667 1 2 3 0 -1826.53 3.38524
294      141.667 1 2 3 0 -1826.53 1.08996
295      141.667 1 2 3 0 -1826.53 5.07786
296      141.667 1 2 3 0 -1826.53 2.78258
297      141.667 1 2 3 0 -1826.53 0.487298
298      141.667 1 2 3 0 -1826.53 4.4752
299      141.667 1 2 3 0 -1826.53 2.17992
300      141.667 1 2 3 0 -1826.53 6.16782
301      141.667 1 2 3 0 -1826.53 3.87254
302      141.667 1 2 3 0 -1826.53 1.57726
303      141.667 1 2 3 0 -1826.53 5.56516
304      141.667 1 2 3 0 -1826.53 3.26988
305      141.667 1 2 3 0 -1826.53 0.974596
306      141.667 1 2 3 0 -1826.53 4.9625
307      141.667 1 2 3 0 -1826.53 2.66722
308      141.667 1 2 3 0 -1826.53 0.371935
309      141.667 1 2 3 0 -1826.53 4.35984
310      141.667 1 2 3 0 -1826.53 2.06456
311      141.667 1 2 3 0 -1826.53 6.05246
312      141.667 1 2 3 0 -1826.53 3.75718
313      141.667 1 2 3 0 -1826.53 1.46189
314      141.667 1 2 3 0 -1826.53 5.4498
315      141.667 1 2 3 0 -1826.53 3.15452
316      141.667 1 2 3 0 -1826.53 0.859233
317      141.667 1 2 3 0 -1826.53 4.84714
318      141.667 1 2 3 0 -1826.53 2.55185
319      141.667 1 2 3 0 -1826.53 0.256572
320      141.667 1 2 3 0 -1826.53 4.24447
321      141.667 1 2 3 0 -1826.53 1.94919
322      141.667 1 2 3 0 -1826.53 5.9371
323      141.667 1 2 3 0 -1826.53 3.64181
324      141.667 1 2 3 0 -1826.53 1.34653
325      141.667 1 2 3 0 -1813.75 0
326      141.667 1 2 3 0 -1813.75 4.00395
327      141.667 1 2 3 0 -1813.75 1.72472
328      141.667 1 2 3 0 -1813.75 5.72868
329      141.667 1 2 3 0 -1813.75 3.44945
330      141.667 1 2 3 0 -1813.75 1.17021
331      141.667 1 2 3 0 -1813.75 5.17417
332      141.667 1 2 3 0 -1813.75 2.89494
333      141.667 1 2 3 0 -1813.75 0.615706
334      141.667 1 2 3 0 -1813.75 4.61966
335      141.667 1 2 3 0 -1813.75 2.34043
336      141.667 1 2 3 0 -1813.75 0.0611969
337      141.667 1 2 3 0 -1813.75 4.06515
338      141.667 1 2 3 0 -1813.75 1.78592
339      141.667 1 2 3 0 -1813.75 5.78987
340      141.667 1 2 3 0 -1813.75 3.51064
341      141.667 1 2 3 0 -1813.75 1.23141
342      141.667 1 2 3 0 -1813.75 5.23537
343      141.667 1 2 3 0 -1813.75 2.95613
344      141.667 1 2 3 0 -1813.75 0.676902
345      141.667 1 2 3 0 -1813.75 4.68086
346      141.667 1 2 3 0 -1813.75 2.40163
347      141.667 1 2 3 0 -1813.75 0.122394
348      141.667 1 2 3 0 -1813.75 4.12635
349      141.667 1 2 3 0 -1813.75 1.84712
350      141.667 1 2 3 0 -1813.75 5.85107
351      141.667 1 2 3 0 -1813.75 3.57184
352      141.667 1 2 3 0 -1813.75 1.29261
353      141.667 1 2 3 0 -1813.75 5.29656
354      141.667 1 2 3 0 -1813.75 3.01733
355      141.667 1 2 3 0 -1813.75 0.738099
356      141.667 1 2 3 0 -1813.75 4.74205
357      141.667 1 2 3 0 -1813.75 2.46282
358      141.667 1 2 3 0 -1813.75 0.183591
359      141.667 1 2 3 0 -1813.75 4.18754
360      141.667 1 2 3 0 -1813.75 1.90831
361      141.667 1 2 3 0 -1800.98 0
362      141.667 1 2 3 0 -1800.98 4.02
363      141.667 1 2 3 0 -1800.98 1.75682
364      141.667 1 2 3 0 -1800.98 5.77683
365      141.667 1 2 3 0 -1800.98 3.51365
366      141.667 1 2 3 0 -1800.98 1.25047
367      141.667 1 2 3 0 -1800.98 5.27047
368      141.667 1 2 3 0 -1800.98 3.00729
369      141.667 1 2 3 0 -1800.98 0.744113
370      141.667 1 2 3 0 -1800.98 4.76412
371      141.667 1 2 3 0 -1800.98 2.50094
372      141.667 1 2 3 0 -1800.98 0.237757
373      141.667 1 2 3 0 -1800.98 4.25776
374      141.667 1 2 3 0 -1800.98 1.99458
375      141.667 1 2 3 0 -1800.98 6.01459
376      141.667 1 2 3 0 -1800.98 3.75141
377      141.667 1 2 3 0 -1800.98 1.48823
378      141.667 1 2 3 0 -1800.98 5.50823
379      141.667 1 2 3 0 -1800.98 3.24505
380      141.667 1 2 3 0 -1800.98 0.98187
381      141.667 1 2 3 0 -1800.98 5.00187
382      141.667 1 2 3 0 -1800.98 2.73869
383      141.667 1 2 3 0 -1800.98 0.475514
384      141.667 1 2 3 0 -1800.98 4.49552
385      141.667 1 2 3 0 -1800.98 2.23234
386      141.667 1 2 3 0 -1800.98 6.25234
387      141.667 1 2 3 0 -1800.98 3.98916
388      141.667 1 2 3 0 -1800.98 1.72598
389      141.667 1 2 3 0 -1800.98 5.74599
390      141.667 1 2 3 0 -1800.98 3.48281
391      141.667 1 2 3 0 -1800.98 1.21963
392      141.667 1 2 3 0 -1800.98 5.23963
393      141.667 1 2 3 0 -1800.98 2.97645
394      141.667 1 2 3 0 -1800.98 0.713271
395      141.667 1 2 3 0 -1800.98 4.73328
396      141.667 1 2 3 0 -1800.98 2.4701
397      141.667 1 2 3 0 -1788.21 0
398      141.667 1 2 3 0 -1788.21 4.03606
399      141.667 1 2 3 0 -1788.21 1.78893
400      141.667 1 2 3 0 -1788.21 5.82498
401      141.667 1 2 3 0 -1788.21 3.57785
402      141.667 1 2 3 0 -1788.21 1.33072
403      141.667 1 2 3 0 -1788.21 5.36678
404      141.667 1 2 3 0 -1788.21 3.11965
405      141.667 1 2 3 0 -1788.21 0.87252
406      141.667 1 2 3 0 -1788.21 4.90858
407      141.667 1 2 3 0 -1788.21 2.66145
408      141.667 1 2 3 0 -1788.21 0.414317
409      141.667 1 2 3 0 -1788.21 4.45037
410      141.667 1 2 3 0 -1788.21 2.20324
411      141.667 1 2 3 0 -1788.21 6.2393
412      141.667 1 2 3 0 -1788.21 3.99217
413      141.667 1 2 3 0 -1788.21 1.74504
414      141.667 1 2 3 0 -1788.21 5.7811
415      141.667 1 2 3 0 -1788.21 3.53397
416      141.667 1 2 3 0 -1788.21 1.28684
417      141.667 1 2 3 0 -1788.21 5.32289
418      141.667 1 2 3 0 -1788.21 3.07576
419      141.667 1 2 3 0 -1788.21 0.828635
420      141.667 1 2 3 0 -1788.21 4.86469
421      141.667 1 2 3 0 -1788.21 2.61756
422      141.667 1 2 3 0 -1788.21 0.370431
423      141.667 1 2 3 0 -1788.21 4.40649
424      141.667 1 2 3 0 -1788.21 2.15936
425      141.667 1 2 3 0 -1788.21 6.19541
426      141.667 1 2 3 0 -1788.21 3.94828
427      141.667 1 2 3 0 -1788.21 1.70115
428      141.667 1 2 3 0 -1788.21 5.73721
429      141.667 1 2 3 0 -1788.21 3.49008
430      141.667 1 2 3 0 -1788.21 1.24295
431      141.667 1 2 3 0 -1788.21 5.27901
432      141.667 1 2 3 0 -1788.21 3.03188
433      141.667 1 2 3 0 -1775.44 0
434      141.667 1 2 3 0 -1775.44 4.05211
435      141.667 1 2 3 0 -1775.44 1.82103
436      141.667 1 2 3 0 -1775.44 5.87314
437      141.667 1 2 3 0 -1775.44 3.64206
438      141.667 1 2 3 0 -1775.44 1.41098
439      141.667 1 2 3 0 -1775.44 5.46308
440      141.667 1 2 3 0 -1775.44 3.23201
441      141.667 1 2 3 0 -1775.44 1.00093
442      141.667 1 2 3 0 -1775.44 5.05303
443      141.667 1 2 3 0 -1775.44 2.82196
444      141.667 1 2 3 0 -1775.44 0.590877
445      141.667 1 2 3 0 -1775.44 4.64298
446      141.667 1 2 3 0 -1775.44 2.41191
447      141.667 1 2 3 0 -1775.44 0.180827
448      141.667 1 2 3 0 -1775.44 4.23293
449      141.667 1 2 3 0 -1775.44 2.00186
450      141.667 1 2 3 0 -1775.44 6.05396
451      141.667 1 2 3 0 -1775.44 3.82288
452      141.667 1 2 3 0 -1775.44 1.59181
453      141.667 1 2 3 0 -1775.44 5.64391
454      141.667 1 2 3 0 -1775.44 3.41283
455      141.667 1 2 3 0 -1775.44 1.18175
456      141.667 1 2 3 0 -1775.44 5.23386
457      141.667 1 2 3 0 -1775.44 3.00278
458      141.667 1 2 3 0 -1775.44 0.771705
459      141.667 1 2 3 0 -1775.44 4.82381
460      141.667 1 2 3 0 -1775.44 2.59273
461      141.667 1 2 3 0 -1775.44 0.361654
462      141.667 1 2 3 0 -1775.44 4.41376
463      141.667 1 2 3 0 -1775.44 2.18268
464      141.667 1 2 3 0 -1775.44 6.23479
465      141.667 1 2 3 0 -1775.44 4.00371
466      141.667 1 2 3 0 -1775.44 1.77263
467      141.667 1 2 3 0 -1775.44 5.82474
468      141.667 1 2 3 0 -1775.44 3.59366
469      141.667 1 2 3 0 -1762.66 0
470      141.667 1 2 3 0 -1762.66 4.06816
471      141.667 1 2 3 0 -1762.66 1.85313
472      141.667 1 2 3 0 -1762.66 5.92129
473      141.667 1 2 3 0 -1762.66 3.70626
474      141.667 1 2 3 0 -1762.66 1.49123
475      141.667 1 2 3 0 -1762.66 5.55939
476      141.667 1 2 3 0 -1762.66 3.34436
477      141.667 1 2 3 0 -1762.66 1.12934
478      141.667 1 2 3 0 -1762.66 5.19749
479      141.667 1 2 3 0 -1762.66 2.98247
480      141.667 1 2 3 0 -1762.66 0.767438
