# Pulseq sequence file
# Created by PyPulseq

# Created for Pulseq-CEST
# https://pulseq-cest.github.io/
# Created by: https://github.com/pulseq-cest/BMsim_challenge
# Created at: 17-Aug-2023 15:06:53

[VERSION]
major 1
minor 4
revision 0

[DEFINITIONS]
AdcRasterTime 1e-07 
B0 3 
B1pa 1.78 
B1rms 1.99619393 
BlockDurationRaster 1e-05 
FREQ 127.7292 
GradientRasterTime 1e-05 
M0_offset -300 
RadiofrequencyRasterTime 1e-06 
Trec 3.5 
Trec_M0 3.5 
Tsat 1.975 
n_pulses 36 
num_meas 302 
offsets_ppm -300 -15 -14.9 -14.8 -14.7 -14.6 -14.5 -14.4 -14.3 -14.2 -14.1 -14 -13.9 -13.8 -13.7 -13.6 -13.5 -13.4 -13.3 -13.2 -13.1 -13 -12.9 -12.8 -12.7 -12.6 -12.5 -12.4 -12.3 -12.2 -12.1 -12 -11.9 -11.8 -11.7 -11.6 -11.5 -11.4 -11.3 -11.2 -11.1 -11 -10.9 -10.8 -10.7 -10.6 -10.5 -10.4 -10.3 -10.2 -10.1 -10 -9.9 -9.8 -9.7 -9.6 -9.5 -9.4 -9.3 -9.2 -9.1 -9 -8.9 -8.8 -8.7 -8.6 -8.5 -8.4 -8.3 -8.2 -8.1 -8 -7.9 -7.8 -7.7 -7.6 -7.5 -7.4 -7.3 -7.2 -7.1 -7 -6.9 -6.8 -6.7 -6.6 -6.5 -6.4 -6.3 -6.2 -6.1 -6 -5.9 -5.8 -5.7 -5.6 -5.5 -5.4 -5.3 -5.2 -5.1 -5 -4.9 -4.8 -4.7 -4.6 -4.5 -4.4 -4.3 -4.2 -4.1 -4 -3.9 -3.8 -3.7 -3.6 -3.5 -3.4 -3.3 -3.2 -3.1 -3 -2.9 -2.8 -2.7 -2.6 -2.5 -2.4 -2.3 -2.2 -2.1 -2 -1.9 -1.8 -1.7 -1.6 -1.5 -1.4 -1.3 -1.2 -1.1 -1 -0.9 -0.8 -0.7 -0.6 -0.5 -0.4 -0.3 -0.2 -0.1 0 0.1 0.2 0.3 0.4 0.5 0.6 0.7 0.8 0.9 1 1.1 1.2 1.3 1.4 1.5 1.6 1.7 1.8 1.9 2 2.1 2.2 2.3 2.4 2.5 2.6 2.7 2.8 2.9 3 3.1 3.2 3.3 3.4 3.5 3.6 3.7 3.8 3.9 4 4.1 4.2 4.3 4.4 4.5 4.6 4.7 4.8 4.9 5 5.1 5.2 5.3 5.4 5.5 5.6 5.7 5.8 5.9 6 6.1 6.2 6.3 6.4 6.5 6.6 6.7 6.8 6.9 7 7.1 7.2 7.3 7.4 7.5 7.6 7.7 7.8 7.9 8 8.1 8.2 8.3 8.4 8.5 8.6 8.7 8.8 8.9 9 9.1 9.2 9.3 9.4 9.5 9.6 9.7 9.8 9.9 10 10.1 10.2 10.3 10.4 10.5 10.6 10.7 10.8 10.9 11 11.1 11.2 11.3 11.4 11.5 11.6 11.7 11.8 11.9 12 12.1 12.2 12.3 12.4 12.5 12.6 12.7 12.8 12.9 13 13.1 13.2 13.3 13.4 13.5 13.6 13.7 13.8 13.9 14 14.1 14.2 14.3 14.4 14.5 14.6 14.7 14.8 14.9 15 
seq_id_string case_7_pypulseq_v140 
td 0.005 
tp 0.05 

# Format of blocks:
# NUM DUR RF  GX  GY  GZ  ADC  EXT
[BLOCKS]
    1 350000   0   0   0   0  0  0
    2 5000   1   0   0   0  0  0
    3 500   0   0   0   0  0  0
    4 5000   2   0   0   0  0  0
    5 500   0   0   0   0  0  0
    6 5000   3   0   0   0  0  0
    7 500   0   0   0   0  0  0
    8 5000   4   0   0   0  0  0
    9 500   0   0   0   0  0  0
   10 5000   5   0   0   0  0  0
   11 500   0   0   0   0  0  0
   12 5000   6   0   0   0  0  0
   13 500   0   0   0   0  0  0
   14 5000   7   0   0   0  0  0
   15 500   0   0   0   0  0  0
   16 5000   8   0   0   0  0  0
   17 500   0   0   0   0  0  0
   18 5000   9   0   0   0  0  0
   19 500   0   0   0   0  0  0
   20 5000  10   0   0   0  0  0
   21 500   0   0   0   0  0  0
   22 5000  11   0   0   0  0  0
   23 500   0   0   0   0  0  0
   24 5000  12   0   0   0  0  0
   25 500   0   0   0   0  0  0
   26 5000  13   0   0   0  0  0
   27 500   0   0   0   0  0  0
   28 5000  14   0   0   0  0  0
   29 500   0   0   0   0  0  0
   30 5000  15   0   0   0  0  0
   31 500   0   0   0   0  0  0
   32 5000  16   0   0   0  0  0
   33 500   0   0   0   0  0  0
   34 5000  17   0   0   0  0  0
   35 500   0   0   0   0  0  0
   36 5000  18   0   0   0  0  0
   37 500   0   0   0   0  0  0
   38 5000  19   0   0   0  0  0
   39 500   0   0   0   0  0  0
   40 5000  20   0   0   0  0  0
   41 500   0   0   0   0  0  0
   42 5000  21   0   0   0  0  0
   43 500   0   0   0   0  0  0
   44 5000  22   0   0   0  0  0
   45 500   0   0   0   0  0  0
   46 5000  23   0   0   0  0  0
   47 500   0   0   0   0  0  0
   48 5000  24   0   0   0  0  0
   49 500   0   0   0   0  0  0
   50 5000  25   0   0   0  0  0
   51 500   0   0   0   0  0  0
   52 5000  26   0   0   0  0  0
   53 500   0   0   0   0  0  0
   54 5000  27   0   0   0  0  0
   55 500   0   0   0   0  0  0
   56 5000  28   0   0   0  0  0
   57 500   0   0   0   0  0  0
   58 5000  29   0   0   0  0  0
   59 500   0   0   0   0  0  0
   60 5000  30   0   0   0  0  0
   61 500   0   0   0   0  0  0
   62 5000  31   0   0   0  0  0
   63 500   0   0   0   0  0  0
   64 5000  32   0   0   0  0  0
   65 500   0   0   0   0  0  0
   66 5000  33   0   0   0  0  0
   67 500   0   0   0   0  0  0
   68 5000  34   0   0   0  0  0
   69 500   0   0   0   0  0  0
   70 5000  35   0   0   0  0  0
   71 500   0   0   0   0  0  0
   72 5000  36   0   0   0  0  0
   73 650   0   1   1   1  0  0
   74 100   0   0   0   0  1  0
   75 350000   0   0   0   0  0  0
   76 5000  37   0   0   0  0  0
   77 500   0   0   0   0  0  0
   78 5000  38   0   0   0  0  0
   79 500   0   0   0   0  0  0
   80 5000  39   0   0   0  0  0
   81 500   0   0   0   0  0  0
   82 5000  40   0   0   0  0  0
   83 500   0   0   0   0  0  0
   84 5000  41   0   0   0  0  0
   85 500   0   0   0   0  0  0
   86 5000  42   0   0   0  0  0
   87 500   0   0   0   0  0  0
   88 5000  43   0   0   0  0  0
   89 500   0   0   0   0  0  0
   90 5000  44   0   0   0  0  0
   91 500   0   0   0   0  0  0
   92 5000  45   0   0   0  0  0
   93 500   0   0   0   0  0  0
   94 5000  46   0   0   0  0  0
   95 500   0   0   0   0  0  0
   96 5000  47   0   0   0  0  0
   97 500   0   0   0   0  0  0
   98 5000  48   0   0   0  0  0
   99 500   0   0   0   0  0  0
  100 5000  49   0   0   0  0  0
  101 500   0   0   0   0  0  0
  102 5000  50   0   0   0  0  0
  103 500   0   0   0   0  0  0
  104 5000  51   0   0   0  0  0
  105 500   0   0   0   0  0  0
  106 5000  52   0   0   0  0  0
  107 500   0   0   0   0  0  0
  108 5000  53   0   0   0  0  0
  109 500   0   0   0   0  0  0
  110 5000  54   0   0   0  0  0
  111 500   0   0   0   0  0  0
  112 5000  55   0   0   0  0  0
  113 500   0   0   0   0  0  0
  114 5000  56   0   0   0  0  0
  115 500   0   0   0   0  0  0
  116 5000  57   0   0   0  0  0
  117 500   0   0   0   0  0  0
  118 5000  58   0   0   0  0  0
  119 500   0   0   0   0  0  0
  120 5000  59   0   0   0  0  0
  121 500   0   0   0   0  0  0
  122 5000  60   0   0   0  0  0
  123 500   0   0   0   0  0  0
  124 5000  61   0   0   0  0  0
  125 500   0   0   0   0  0  0
  126 5000  62   0   0   0  0  0
  127 500   0   0   0   0  0  0
  128 5000  63   0   0   0  0  0
  129 500   0   0   0   0  0  0
  130 5000  64   0   0   0  0  0
  131 500   0   0   0   0  0  0
  132 5000  65   0   0   0  0  0
  133 500   0   0   0   0  0  0
  134 5000  66   0   0   0  0  0
  135 500   0   0   0   0  0  0
  136 5000  67   0   0   0  0  0
  137 500   0   0   0   0  0  0
  138 5000  68   0   0   0  0  0
  139 500   0   0   0   0  0  0
  140 5000  69   0   0   0  0  0
  141 500   0   0   0   0  0  0
  142 5000  70   0   0   0  0  0
  143 500   0   0   0   0  0  0
  144 5000  71   0   0   0  0  0
  145 500   0   0   0   0  0  0
  146 5000  72   0   0   0  0  0
  147 650   0   1   1   1  0  0
  148 100   0   0   0   0  1  0
  149 350000   0   0   0   0  0  0
  150 5000  73   0   0   0  0  0
  151 500   0   0   0   0  0  0
  152 5000  74   0   0   0  0  0
  153 500   0   0   0   0  0  0
  154 5000  75   0   0   0  0  0
  155 500   0   0   0   0  0  0
  156 5000  76   0   0   0  0  0
  157 500   0   0   0   0  0  0
  158 5000  77   0   0   0  0  0
  159 500   0   0   0   0  0  0
  160 5000  78   0   0   0  0  0
  161 500   0   0   0   0  0  0
  162 5000  79   0   0   0  0  0
  163 500   0   0   0   0  0  0
  164 5000  80   0   0   0  0  0
  165 500   0   0   0   0  0  0
  166 5000  81   0   0   0  0  0
  167 500   0   0   0   0  0  0
  168 5000  82   0   0   0  0  0
  169 500   0   0   0   0  0  0
  170 5000  83   0   0   0  0  0
  171 500   0   0   0   0  0  0
  172 5000  84   0   0   0  0  0
  173 500   0   0   0   0  0  0
  174 5000  85   0   0   0  0  0
  175 500   0   0   0   0  0  0
  176 5000  86   0   0   0  0  0
  177 500   0   0   0   0  0  0
  178 5000  87   0   0   0  0  0
  179 500   0   0   0   0  0  0
  180 5000  88   0   0   0  0  0
  181 500   0   0   0   0  0  0
  182 5000  89   0   0   0  0  0
  183 500   0   0   0   0  0  0
  184 5000  90   0   0   0  0  0
  185 500   0   0   0   0  0  0
  186 5000  91   0   0   0  0  0
  187 500   0   0   0   0  0  0
  188 5000  92   0   0   0  0  0
  189 500   0   0   0   0  0  0
  190 5000  93   0   0   0  0  0
  191 500   0   0   0   0  0  0
  192 5000  94   0   0   0  0  0
  193 500   0   0   0   0  0  0
  194 5000  95   0   0   0  0  0
  195 500   0   0   0   0  0  0
  196 5000  96   0   0   0  0  0
  197 500   0   0   0   0  0  0
  198 5000  97   0   0   0  0  0
  199 500   0   0   0   0  0  0
  200 5000  98   0   0   0  0  0
  201 500   0   0   0   0  0  0
  202 5000  99   0   0   0  0  0
  203 500   0   0   0   0  0  0
  204 5000 100   0   0   0  0  0
  205 500   0   0   0   0  0  0
  206 5000 101   0   0   0  0  0
  207 500   0   0   0   0  0  0
  208 5000 102   0   0   0  0  0
  209 500   0   0   0   0  0  0
  210 5000 103   0   0   0  0  0
  211 500   0   0   0   0  0  0
  212 5000 104   0   0   0  0  0
  213 500   0   0   0   0  0  0
  214 5000 105   0   0   0  0  0
  215 500   0   0   0   0  0  0
  216 5000 106   0   0   0  0  0
  217 500   0   0   0   0  0  0
  218 5000 107   0   0   0  0  0
  219 500   0   0   0   0  0  0
  220 5000 108   0   0   0  0  0
  221 650   0   1   1   1  0  0
  222 100   0   0   0   0  1  0
  223 350000   0   0   0   0  0  0
  224 5000 109   0   0   0  0  0
  225 500   0   0   0   0  0  0
  226 5000 110   0   0   0  0  0
  227 500   0   0   0   0  0  0
  228 5000 111   0   0   0  0  0
  229 500   0   0   0   0  0  0
  230 5000 112   0   0   0  0  0
  231 500   0   0   0   0  0  0
  232 5000 113   0   0   0  0  0
  233 500   0   0   0   0  0  0
  234 5000 114   0   0   0  0  0
  235 500   0   0   0   0  0  0
  236 5000 115   0   0   0  0  0
[RF]
1      141.667 1 2 3 0 -38318.8 0
2      141.667 1 2 3 0 -38318.8 0.389557
3      141.667 1 2 3 0 -38318.8 0.779115
4      141.667 1 2 3 0 -38318.8 1.16867
5      141.667 1 2 3 0 -38318.8 1.55823
6      141.667 1 2 3 0 -38318.8 1.94779
7      141.667 1 2 3 0 -38318.8 2.33734
8      141.667 1 2 3 0 -38318.8 2.7269
9      141.667 1 2 3 0 -38318.8 3.11646
10      141.667 1 2 3 0 -38318.8 3.50602
11      141.667 1 2 3 0 -38318.8 3.89557
12      141.667 1 2 3 0 -38318.8 4.28513
13      141.667 1 2 3 0 -38318.8 4.67469
14      141.667 1 2 3 0 -38318.8 5.06425
15      141.667 1 2 3 0 -38318.8 5.4538
16      141.667 1 2 3 0 -38318.8 5.84336
17      141.667 1 2 3 0 -38318.8 6.23292
18      141.667 1 2 3 0 -38318.8 0.339292
19      141.667 1 2 3 0 -38318.8 0.728849
20      141.667 1 2 3 0 -38318.8 1.11841
21      141.667 1 2 3 0 -38318.8 1.50796
22      141.667 1 2 3 0 -38318.8 1.89752
23      141.667 1 2 3 0 -38318.8 2.28708
24      141.667 1 2 3 0 -38318.8 2.67664
25      141.667 1 2 3 0 -38318.8 3.06619
26      141.667 1 2 3 0 -38318.8 3.45575
27      141.667 1 2 3 0 -38318.8 3.84531
28      141.667 1 2 3 0 -38318.8 4.23487
29      141.667 1 2 3 0 -38318.8 4.62442
30      141.667 1 2 3 0 -38318.8 5.01398
31      141.667 1 2 3 0 -38318.8 5.40354
32      141.667 1 2 3 0 -38318.8 5.7931
33      141.667 1 2 3 0 -38318.8 6.18265
34      141.667 1 2 3 0 -38318.8 0.289027
35      141.667 1 2 3 0 -38318.8 0.678584
36      141.667 1 2 3 0 -38318.8 1.06814
37      141.667 1 2 3 0 -1915.94 0
38      141.667 1 2 3 0 -1915.94 1.27611
39      141.667 1 2 3 0 -1915.94 2.55223
40      141.667 1 2 3 0 -1915.94 3.82834
41      141.667 1 2 3 0 -1915.94 5.10446
42      141.667 1 2 3 0 -1915.94 0.0973894
43      141.667 1 2 3 0 -1915.94 1.3735
44      141.667 1 2 3 0 -1915.94 2.64962
45      141.667 1 2 3 0 -1915.94 3.92573
46      141.667 1 2 3 0 -1915.94 5.20185
47      141.667 1 2 3 0 -1915.94 0.194779
48      141.667 1 2 3 0 -1915.94 1.47089
49      141.667 1 2 3 0 -1915.94 2.74701
50      141.667 1 2 3 0 -1915.94 4.02312
51      141.667 1 2 3 0 -1915.94 5.29924
52      141.667 1 2 3 0 -1915.94 0.292168
53      141.667 1 2 3 0 -1915.94 1.56828
54      141.667 1 2 3 0 -1915.94 2.8444
55      141.667 1 2 3 0 -1915.94 4.12051
56      141.667 1 2 3 0 -1915.94 5.39663
57      141.667 1 2 3 0 -1915.94 0.389557
58      141.667 1 2 3 0 -1915.94 1.66567
59      141.667 1 2 3 0 -1915.94 2.94179
60      141.667 1 2 3 0 -1915.94 4.2179
61      141.667 1 2 3 0 -1915.94 5.49402
62      141.667 1 2 3 0 -1915.94 0.486947
63      141.667 1 2 3 0 -1915.94 1.76306
64      141.667 1 2 3 0 -1915.94 3.03918
65      141.667 1 2 3 0 -1915.94 4.31529
66      141.667 1 2 3 0 -1915.94 5.59141
67      141.667 1 2 3 0 -1915.94 0.584336
68      141.667 1 2 3 0 -1915.94 1.86045
69      141.667 1 2 3 0 -1915.94 3.13657
70      141.667 1 2 3 0 -1915.94 4.41268
71      141.667 1 2 3 0 -1915.94 5.6888
72      141.667 1 2 3 0 -1915.94 0.681726
73      141.667 1 2 3 0 -1903.17 0
74      141.667 1 2 3 0 -1903.17 5.28885
75      141.667 1 2 3 0 -1903.17 4.29451
76      141.667 1 2 3 0 -1903.17 3.30017
77      141.667 1 2 3 0 -1903.17 2.30583
78      141.667 1 2 3 0 -1903.17 1.31149
79      141.667 1 2 3 0 -1903.17 0.31715
80      141.667 1 2 3 0 -1903.17 5.606
81      141.667 1 2 3 0 -1903.17 4.61166
82      141.667 1 2 3 0 -1903.17 3.61732
83      141.667 1 2 3 0 -1903.17 2.62298
84      141.667 1 2 3 0 -1903.17 1.62864
85      141.667 1 2 3 0 -1903.17 0.6343
86      141.667 1 2 3 0 -1903.17 5.92315
87      141.667 1 2 3 0 -1903.17 4.92881
88      141.667 1 2 3 0 -1903.17 3.93447
89      141.667 1 2 3 0 -1903.17 2.94013
90      141.667 1 2 3 0 -1903.17 1.94579
91      141.667 1 2 3 0 -1903.17 0.95145
92      141.667 1 2 3 0 -1903.17 6.2403
93      141.667 1 2 3 0 -1903.17 5.24596
94      141.667 1 2 3 0 -1903.17 4.25162
95      141.667 1 2 3 0 -1903.17 3.25728
96      141.667 1 2 3 0 -1903.17 2.26294
97      141.667 1 2 3 0 -1903.17 1.2686
98      141.667 1 2 3 0 -1903.17 0.274261
99      141.667 1 2 3 0 -1903.17 5.56311
100      141.667 1 2 3 0 -1903.17 4.56877
101      141.667 1 2 3 0 -1903.17 3.57443
102      141.667 1 2 3 0 -1903.17 2.58009
103      141.667 1 2 3 0 -1903.17 1.58575
104      141.667 1 2 3 0 -1903.17 0.591411
105      141.667 1 2 3 0 -1903.17 5.88026
106      141.667 1 2 3 0 -1903.17 4.88592
107      141.667 1 2 3 0 -1903.17 3.89158
108      141.667 1 2 3 0 -1903.17 2.89724
109      141.667 1 2 3 0 -1890.39 0
110      141.667 1 2 3 0 -1890.39 3.01839
111      141.667 1 2 3 0 -1890.39 6.03678
112      141.667 1 2 3 0 -1890.39 2.77199
113      141.667 1 2 3 0 -1890.39 5.79038
114      141.667 1 2 3 0 -1890.39 2.52559
115      141.667 1 2 3 0 -1890.39 5.54398
116      141.667 1 2 3 0 -1890.39 2.27919
117      141.667 1 2 3 0 -1890.39 5.29758
118      141.667 1 2 3 0 -1890.39 2.03279
119      141.667 1 2 3 0 -1890.39 5.05118
120      141.667 1 2 3 0 -1890.39 1.78638
121      141.667 1 2 3 0 -1890.39 4.80478
122      141.667 1 2 3 0 -1890.39 1.53998
123      141.667 1 2 3 0 -1890.39 4.55838
124      141.667 1 2 3 0 -1890.39 1.29358
125      141.667 1 2 3 0 -1890.39 4.31197
126      141.667 1 2 3 0 -1890.39 1.04718
127      141.667 1 2 3 0 -1890.39 4.06557
128      141.667 1 2 3 0 -1890.39 0.800779
129      141.667 1 2 3 0 -1890.39 3.81917
130      141.667 1 2 3 0 -1890.39 0.554378
131      141.667 1 2 3 0 -1890.39 3.57277
132      141.667 1 2 3 0 -1890.39 0.307977
133      141.667 1 2 3 0 -1890.39 3.32637
134      141.667 1 2 3 0 -1890.39 0.0615752
135      141.667 1 2 3 0 -1890.39 3.07997
136      141.667 1 2 3 0 -1890.39 6.09836
137      141.667 1 2 3 0 -1890.39 2.83357
138      141.667 1 2 3 0 -1890.39 5.85196
139      141.667 1 2 3 0 -1890.39 2.58716
140      141.667 1 2 3 0 -1890.39 5.60556
141      141.667 1 2 3 0 -1890.39 2.34076
142      141.667 1 2 3 0 -1890.39 5.35915
143      141.667 1 2 3 0 -1890.39 2.09436
144      141.667 1 2 3 0 -1890.39 5.11275
145      141.667 1 2 3 0 -1877.62 0
146      141.667 1 2 3 0 -1877.62 0.747938
147      141.667 1 2 3 0 -1877.62 1.49588
148      141.667 1 2 3 0 -1877.62 2.24381
149      141.667 1 2 3 0 -1877.62 2.99175
150      141.667 1 2 3 0 -1877.62 3.73969
151      141.667 1 2 3 0 -1877.62 4.48763
152      141.667 1 2 3 0 -1877.62 5.23556
153      141.667 1 2 3 0 -1877.62 5.9835
154      141.667 1 2 3 0 -1877.62 0.448255
155      141.667 1 2 3 0 -1877.62 1.19619
156      141.667 1 2 3 0 -1877.62 1.94413
157      141.667 1 2 3 0 -1877.62 2.69207
158      141.667 1 2 3 0 -1877.62 3.44001
159      141.667 1 2 3 0 -1877.62 4.18794
160      141.667 1 2 3 0 -1877.62 4.93588
161      141.667 1 2 3 0 -1877.62 5.68382
162      141.667 1 2 3 0 -1877.62 0.148572
163      141.667 1 2 3 0 -1877.62 0.89651
164      141.667 1 2 3 0 -1877.62 1.64445
165      141.667 1 2 3 0 -1877.62 2.39239
166      141.667 1 2 3 0 -1877.62 3.14032
167      141.667 1 2 3 0 -1877.62 3.88826
168      141.667 1 2 3 0 -1877.62 4.6362
169      141.667 1 2 3 0 -1877.62 5.38414
170      141.667 1 2 3 0 -1877.62 6.13207
171      141.667 1 2 3 0 -1877.62 0.596827
172      141.667 1 2 3 0 -1877.62 1.34477
173      141.667 1 2 3 0 -1877.62 2.0927
174      141.667 1 2 3 0 -1877.62 2.84064
175      141.667 1 2 3 0 -1877.62 3.58858
176      141.667 1 2 3 0 -1877.62 4.33652
177      141.667 1 2 3 0 -1877.62 5.08445
178      141.667 1 2 3 0 -1877.62 5.83239
179      141.667 1 2 3 0 -1877.62 0.297144
180      141.667 1 2 3 0 -1877.62 1.04508
181      141.667 1 2 3 0 -1864.85 0
182      141.667 1 2 3 0 -1864.85 4.76067
183      141.667 1 2 3 0 -1864.85 3.23815
184      141.667 1 2 3 0 -1864.85 1.71564
185      141.667 1 2 3 0 -1864.85 0.19312
186      141.667 1 2 3 0 -1864.85 4.95379
187      141.667 1 2 3 0 -1864.85 3.43127
188      141.667 1 2 3 0 -1864.85 1.90876
189      141.667 1 2 3 0 -1864.85 0.38624
190      141.667 1 2 3 0 -1864.85 5.14691
191      141.667 1 2 3 0 -1864.85 3.62439
192      141.667 1 2 3 0 -1864.85 2.10188
193      141.667 1 2 3 0 -1864.85 0.57936
194      141.667 1 2 3 0 -1864.85 5.34003
195      141.667 1 2 3 0 -1864.85 3.81751
196      141.667 1 2 3 0 -1864.85 2.295
197      141.667 1 2 3 0 -1864.85 0.77248
198      141.667 1 2 3 0 -1864.85 5.53315
199      141.667 1 2 3 0 -1864.85 4.01063
200      141.667 1 2 3 0 -1864.85 2.48812
201      141.667 1 2 3 0 -1864.85 0.9656
202      141.667 1 2 3 0 -1864.85 5.72627
203      141.667 1 2 3 0 -1864.85 4.20375
204      141.667 1 2 3 0 -1864.85 2.68124
205      141.667 1 2 3 0 -1864.85 1.15872
206      141.667 1 2 3 0 -1864.85 5.91939
207      141.667 1 2 3 0 -1864.85 4.39687
208      141.667 1 2 3 0 -1864.85 2.87436
209      141.667 1 2 3 0 -1864.85 1.35184
210      141.667 1 2 3 0 -1864.85 6.11251
211      141.667 1 2 3 0 -1864.85 4.58999
212      141.667 1 2 3 0 -1864.85 3.06748
213      141.667 1 2 3 0 -1864.85 1.54496
214      141.667 1 2 3 0 -1864.85 0.0224435
215      141.667 1 2 3 0 -1864.85 4.78311
216      141.667 1 2 3 0 -1864.85 3.2606
217      141.667 1 2 3 0 -1852.07 0
218      141.667 1 2 3 0 -1852.07 2.49021
219      141.667 1 2 3 0 -1852.07 4.98043
220      141.667 1 2 3 0 -1852.07 1.18746
221      141.667 1 2 3 0 -1852.07 3.67767
222      141.667 1 2 3 0 -1852.07 6.16789
223      141.667 1 2 3 0 -1852.07 2.37492
224      141.667 1 2 3 0 -1852.07 4.86513
225      141.667 1 2 3 0 -1852.07 1.07216
226      141.667 1 2 3 0 -1852.07 3.56238
227      141.667 1 2 3 0 -1852.07 6.05259
228      141.667 1 2 3 0 -1852.07 2.25962
229      141.667 1 2 3 0 -1852.07 4.74984
230      141.667 1 2 3 0 -1852.07 0.956866
231      141.667 1 2 3 0 -1852.07 3.44708
232      141.667 1 2 3 0 -1852.07 5.9373
233      141.667 1 2 3 0 -1852.07 2.14433
234      141.667 1 2 3 0 -1852.07 4.63454
235      141.667 1 2 3 0 -1852.07 0.84157
236      141.667 1 2 3 0 -1852.07 3.33178
237      141.667 1 2 3 0 -1852.07 5.822
238      141.667 1 2 3 0 -1852.07 2.02903
239      141.667 1 2 3 0 -1852.07 4.51924
240      141.667 1 2 3 0 -1852.07 0.726273
241      141.667 1 2 3 0 -1852.07 3.21649
242      141.667 1 2 3 0 -1852.07 5.7067
243      141.667 1 2 3 0 -1852.07 1.91373
244      141.667 1 2 3 0 -1852.07 4.40395
245      141.667 1 2 3 0 -1852.07 0.610977
246      141.667 1 2 3 0 -1852.07 3.10119
247      141.667 1 2 3 0 -1852.07 5.59141
248      141.667 1 2 3 0 -1852.07 1.79844
249      141.667 1 2 3 0 -1852.07 4.28865
250      141.667 1 2 3 0 -1852.07 0.49568
251      141.667 1 2 3 0 -1852.07 2.9859
252      141.667 1 2 3 0 -1852.07 5.47611
253      141.667 1 2 3 0 -1839.3 0
254      141.667 1 2 3 0 -1839.3 0.219761
255      141.667 1 2 3 0 -1839.3 0.439521
256      141.667 1 2 3 0 -1839.3 0.659282
257      141.667 1 2 3 0 -1839.3 0.879043
258      141.667 1 2 3 0 -1839.3 1.0988
259      141.667 1 2 3 0 -1839.3 1.31856
260      141.667 1 2 3 0 -1839.3 1.53832
261      141.667 1 2 3 0 -1839.3 1.75809
262      141.667 1 2 3 0 -1839.3 1.97785
263      141.667 1 2 3 0 -1839.3 2.19761
264      141.667 1 2 3 0 -1839.3 2.41737
265      141.667 1 2 3 0 -1839.3 2.63713
266      141.667 1 2 3 0 -1839.3 2.85689
267      141.667 1 2 3 0 -1839.3 3.07665
268      141.667 1 2 3 0 -1839.3 3.29641
269      141.667 1 2 3 0 -1839.3 3.51617
270      141.667 1 2 3 0 -1839.3 3.73593
271      141.667 1 2 3 0 -1839.3 3.95569
272      141.667 1 2 3 0 -1839.3 4.17545
273      141.667 1 2 3 0 -1839.3 4.39521
274      141.667 1 2 3 0 -1839.3 4.61497
275      141.667 1 2 3 0 -1839.3 4.83474
276      141.667 1 2 3 0 -1839.3 5.0545
277      141.667 1 2 3 0 -1839.3 5.27426
278      141.667 1 2 3 0 -1839.3 5.49402
279      141.667 1 2 3 0 -1839.3 5.71378
280      141.667 1 2 3 0 -1839.3 5.93354
281      141.667 1 2 3 0 -1839.3 6.1533
282      141.667 1 2 3 0 -1839.3 0.0898747
283      141.667 1 2 3 0 -1839.3 0.309635
284      141.667 1 2 3 0 -1839.3 0.529396
285      141.667 1 2 3 0 -1839.3 0.749157
286      141.667 1 2 3 0 -1839.3 0.968917
287      141.667 1 2 3 0 -1839.3 1.18868
288      141.667 1 2 3 0 -1839.3 1.40844
289      141.667 1 2 3 0 -1826.53 0
290      141.667 1 2 3 0 -1826.53 4.23249
291      141.667 1 2 3 0 -1826.53 2.1818
292      141.667 1 2 3 0 -1826.53 0.131105
293      141.667 1 2 3 0 -1826.53 4.3636
294      141.667 1 2 3 0 -1826.53 2.3129
295      141.667 1 2 3 0 -1826.53 0.26221
296      141.667 1 2 3 0 -1826.53 4.4947
297      141.667 1 2 3 0 -1826.53 2.44401
298      141.667 1 2 3 0 -1826.53 0.393315
299      141.667 1 2 3 0 -1826.53 4.62581
300      141.667 1 2 3 0 -1826.53 2.57511
301      141.667 1 2 3 0 -1826.53 0.52442
302      141.667 1 2 3 0 -1826.53 4.75691
303      141.667 1 2 3 0 -1826.53 2.70622
304      141.667 1 2 3 0 -1826.53 0.655525
305      141.667 1 2 3 0 -1826.53 4.88802
306      141.667 1 2 3 0 -1826.53 2.83732
307      141.667 1 2 3 0 -1826.53 0.78663
308      141.667 1 2 3 0 -1826.53 5.01912
309      141.667 1 2 3 0 -1826.53 2.96843
310      141.667 1 2 3 0 -1826.53 0.917735
311      141.667 1 2 3 0 -1826.53 5.15023
312      141.667 1 2 3 0 -1826.53 3.09953
313      141.667 1 2 3 0 -1826.53 1.04884
314      141.667 1 2 3 0 -1826.53 5.28133
315      141.667 1 2 3 0 -1826.53 3.23064
316      141.667 1 2 3 0 -1826.53 1.17994
317      141.667 1 2 3 0 -1826.53 5.41244
318      141.667 1 2 3 0 -1826.53 3.36174
319      141.667 1 2 3 0 -1826.53 1.31105
320      141.667 1 2 3 0 -1826.53 5.54354
321      141.667 1 2 3 0 -1826.53 3.49285
322      141.667 1 2 3 0 -1826.53 1.44215
323      141.667 1 2 3 0 -1826.53 5.67465
324      141.667 1 2 3 0 -1826.53 3.62395
325      141.667 1 2 3 0 -1813.75 0
326      141.667 1 2 3 0 -1813.75 1.96204
327      141.667 1 2 3 0 -1813.75 3.92408
328      141.667 1 2 3 0 -1813.75 5.88611
329      141.667 1 2 3 0 -1813.75 1.56497
330      141.667 1 2 3 0 -1813.75 3.527
331      141.667 1 2 3 0 -1813.75 5.48904
332      141.667 1 2 3 0 -1813.75 1.16789
333      141.667 1 2 3 0 -1813.75 3.12993
334      141.667 1 2 3 0 -1813.75 5.09197
335      141.667 1 2 3 0 -1813.75 0.770821
336      141.667 1 2 3 0 -1813.75 2.73286
337      141.667 1 2 3 0 -1813.75 4.6949
338      141.667 1 2 3 0 -1813.75 0.373749
339      141.667 1 2 3 0 -1813.75 2.33579
340      141.667 1 2 3 0 -1813.75 4.29782
341      141.667 1 2 3 0 -1813.75 6.25986
342      141.667 1 2 3 0 -1813.75 1.93871
343      141.667 1 2 3 0 -1813.75 3.90075
344      141.667 1 2 3 0 -1813.75 5.86279
345      141.667 1 2 3 0 -1813.75 1.54164
346      141.667 1 2 3 0 -1813.75 3.50368
347      141.667 1 2 3 0 -1813.75 5.46572
348      141.667 1 2 3 0 -1813.75 1.14457
349      141.667 1 2 3 0 -1813.75 3.10661
350      141.667 1 2 3 0 -1813.75 5.06865
351      141.667 1 2 3 0 -1813.75 0.747498
352      141.667 1 2 3 0 -1813.75 2.70954
353      141.667 1 2 3 0 -1813.75 4.67157
354      141.667 1 2 3 0 -1813.75 0.350426
355      141.667 1 2 3 0 -1813.75 2.31246
356      141.667 1 2 3 0 -1813.75 4.2745
357      141.667 1 2 3 0 -1813.75 6.23654
358      141.667 1 2 3 0 -1813.75 1.91539
359      141.667 1 2 3 0 -1813.75 3.87743
360      141.667 1 2 3 0 -1813.75 5.83947
361      141.667 1 2 3 0 -1800.98 0
362      141.667 1 2 3 0 -1800.98 5.97477
363      141.667 1 2 3 0 -1800.98 5.66635
364      141.667 1 2 3 0 -1800.98 5.35794
365      141.667 1 2 3 0 -1800.98 5.04952
366      141.667 1 2 3 0 -1800.98 4.7411
367      141.667 1 2 3 0 -1800.98 4.43269
368      141.667 1 2 3 0 -1800.98 4.12427
369      141.667 1 2 3 0 -1800.98 3.81585
370      141.667 1 2 3 0 -1800.98 3.50744
371      141.667 1 2 3 0 -1800.98 3.19902
372      141.667 1 2 3 0 -1800.98 2.8906
373      141.667 1 2 3 0 -1800.98 2.58219
374      141.667 1 2 3 0 -1800.98 2.27377
375      141.667 1 2 3 0 -1800.98 1.96536
376      141.667 1 2 3 0 -1800.98 1.65694
377      141.667 1 2 3 0 -1800.98 1.34852
378      141.667 1 2 3 0 -1800.98 1.04011
379      141.667 1 2 3 0 -1800.98 0.731689
380      141.667 1 2 3 0 -1800.98 0.423273
381      141.667 1 2 3 0 -1800.98 0.114857
382      141.667 1 2 3 0 -1800.98 6.08963
383      141.667 1 2 3 0 -1800.98 5.78121
384      141.667 1 2 3 0 -1800.98 5.47279
385      141.667 1 2 3 0 -1800.98 5.16438
386      141.667 1 2 3 0 -1800.98 4.85596
387      141.667 1 2 3 0 -1800.98 4.54754
388      141.667 1 2 3 0 -1800.98 4.23913
389      141.667 1 2 3 0 -1800.98 3.93071
390      141.667 1 2 3 0 -1800.98 3.62229
391      141.667 1 2 3 0 -1800.98 3.31388
392      141.667 1 2 3 0 -1800.98 3.00546
393      141.667 1 2 3 0 -1800.98 2.69704
394      141.667 1 2 3 0 -1800.98 2.38863
395      141.667 1 2 3 0 -1800.98 2.08021
396      141.667 1 2 3 0 -1800.98 1.7718
397      141.667 1 2 3 0 -1788.21 0
398      141.667 1 2 3 0 -1788.21 3.70431
399      141.667 1 2 3 0 -1788.21 1.12544
400      141.667 1 2 3 0 -1788.21 4.82976
401      141.667 1 2 3 0 -1788.21 2.25089
402      141.667 1 2 3 0 -1788.21 5.9552
403      141.667 1 2 3 0 -1788.21 3.37633
404      141.667 1 2 3 0 -1788.21 0.797462
405      141.667 1 2 3 0 -1788.21 4.50178
406      141.667 1 2 3 0 -1788.21 1.92291
407      141.667 1 2 3 0 -1788.21 5.62722
408      141.667 1 2 3 0 -1788.21 3.04835
409      141.667 1 2 3 0 -1788.21 0.46948
410      141.667 1 2 3 0 -1788.21 4.17379
411      141.667 1 2 3 0 -1788.21 1.59492
412      141.667 1 2 3 0 -1788.21 5.29924
413      141.667 1 2 3 0 -1788.21 2.72037
414      141.667 1 2 3 0 -1788.21 0.141497
415      141.667 1 2 3 0 -1788.21 3.84581
416      141.667 1 2 3 0 -1788.21 1.26694
417      141.667 1 2 3 0 -1788.21 4.97126
418      141.667 1 2 3 0 -1788.21 2.39239
419      141.667 1 2 3 0 -1788.21 6.0967
420      141.667 1 2 3 0 -1788.21 3.51783
421      141.667 1 2 3 0 -1788.21 0.938959
422      141.667 1 2 3 0 -1788.21 4.64327
423      141.667 1 2 3 0 -1788.21 2.0644
424      141.667 1 2 3 0 -1788.21 5.76872
425      141.667 1 2 3 0 -1788.21 3.18985
426      141.667 1 2 3 0 -1788.21 0.610977
427      141.667 1 2 3 0 -1788.21 4.31529
428      141.667 1 2 3 0 -1788.21 1.73642
429      141.667 1 2 3 0 -1788.21 5.44074
430      141.667 1 2 3 0 -1788.21 2.86187
431      141.667 1 2 3 0 -1788.21 0.282995
432      141.667 1 2 3 0 -1788.21 3.98731
433      141.667 1 2 3 0 -1775.44 0
434      141.667 1 2 3 0 -1775.44 1.43386
435      141.667 1 2 3 0 -1775.44 2.86772
436      141.667 1 2 3 0 -1775.44 4.30158
437      141.667 1 2 3 0 -1775.44 5.73544
438      141.667 1 2 3 0 -1775.44 0.886118
439      141.667 1 2 3 0 -1775.44 2.31998
440      141.667 1 2 3 0 -1775.44 3.75384
441      141.667 1 2 3 0 -1775.44 5.1877
442      141.667 1 2 3 0 -1775.44 0.338375
443      141.667 1 2 3 0 -1775.44 1.77224
444      141.667 1 2 3 0 -1775.44 3.2061
445      141.667 1 2 3 0 -1775.44 4.63996
446      141.667 1 2 3 0 -1775.44 6.07382
447      141.667 1 2 3 0 -1775.44 1.22449
448      141.667 1 2 3 0 -1775.44 2.65835
449      141.667 1 2 3 0 -1775.44 4.09221
450      141.667 1 2 3 0 -1775.44 5.52607
451      141.667 1 2 3 0 -1775.44 0.676749
452      141.667 1 2 3 0 -1775.44 2.11061
453      141.667 1 2 3 0 -1775.44 3.54447
454      141.667 1 2 3 0 -1775.44 4.97833
455      141.667 1 2 3 0 -1775.44 0.129006
456      141.667 1 2 3 0 -1775.44 1.56287
457      141.667 1 2 3 0 -1775.44 2.99673
458      141.667 1 2 3 0 -1775.44 4.43059
459      141.667 1 2 3 0 -1775.44 5.86445
460      141.667 1 2 3 0 -1775.44 1.01512
461      141.667 1 2 3 0 -1775.44 2.44898
462      141.667 1 2 3 0 -1775.44 3.88285
463      141.667 1 2 3 0 -1775.44 5.31671
464      141.667 1 2 3 0 -1775.44 0.467381
465      141.667 1 2 3 0 -1775.44 1.90124
466      141.667 1 2 3 0 -1775.44 3.3351
467      141.667 1 2 3 0 -1775.44 4.76896
468      141.667 1 2 3 0 -1775.44 6.20282
469      141.667 1 2 3 0 -1762.66 0
