# Pulseq sequence file
# Created by MATLAB mr toolbox

# Created for Pulseq-CEST
# https://pulseq-cest.github.io/
# Created by: Moritz Zaiss
# Created at: 07-Oct-2022 15:02:38

[VERSION]
major 1
minor 3
revision 1

[DEFINITIONS]
B0 3 
B1cwpe 1.99999997 
DCsat 1 
M0_offset -1560 
Trec 3.5 
Trec_M0 3.5 
Tsat 15 
n_pulses 1 
num_meas 302 
offsets_ppm -1560 -15 -14.9 -14.8 -14.7 -14.6 -14.5 -14.4 -14.3 -14.2 -14.1 -14 -13.9 -13.8 -13.7 -13.6 -13.5 -13.4 -13.3 -13.2 -13.1 -13 -12.9 -12.8 -12.7 -12.6 -12.5 -12.4 -12.3 -12.2 -12.1 -12 -11.9 -11.8 -11.7 -11.6 -11.5 -11.4 -11.3 -11.2 -11.1 -11 -10.9 -10.8 -10.7 -10.6 -10.5 -10.4 -10.3 -10.2 -10.1 -10 -9.9 -9.8 -9.7 -9.6 -9.5 -9.4 -9.3 -9.2 -9.1 -9 -8.9 -8.8 -8.7 -8.6 -8.5 -8.4 -8.3 -8.2 -8.1 -8 -7.9 -7.8 -7.7 -7.6 -7.5 -7.4 -7.3 -7.2 -7.1 -7 -6.9 -6.8 -6.7 -6.6 -6.5 -6.4 -6.3 -6.2 -6.1 -6 -5.9 -5.8 -5.7 -5.6 -5.5 -5.4 -5.3 -5.2 -5.1 -5 -4.9 -4.8 -4.7 -4.6 -4.5 -4.4 -4.3 -4.2 -4.1 -4 -3.9 -3.8 -3.7 -3.6 -3.5 -3.4 -3.3 -3.2 -3.1 -3 -2.9 -2.8 -2.7 -2.6 -2.5 -2.4 -2.3 -2.2 -2.1 -2 -1.9 -1.8 -1.7 -1.6 -1.5 -1.4 -1.3 -1.2 -1.1 -1 -0.9 -0.8 -0.7 -0.6 -0.5 -0.4 -0.3 -0.2 -0.1 0 0.1 0.2 0.3 0.4 0.5 0.6 0.7 0.8 0.9 1 1.1 1.2 1.3 1.4 1.5 1.6 1.7 1.8 1.9 2 2.1 2.2 2.3 2.4 2.5 2.6 2.7 2.8 2.9 3 3.1 3.2 3.3 3.4 3.5 3.6 3.7 3.8 3.9 4 4.1 4.2 4.3 4.4 4.5 4.6 4.7 4.8 4.9 5 5.1 5.2 5.3 5.4 5.5 5.6 5.7 5.8 5.9 6 6.1 6.2 6.3 6.4 6.5 6.6 6.7 6.8 6.9 7 7.1 7.2 7.3 7.4 7.5 7.6 7.7 7.8 7.9 8 8.1 8.2 8.3 8.4 8.5 8.6 8.7 8.8 8.9 9 9.1 9.2 9.3 9.4 9.5 9.6 9.7 9.8 9.9 10 10.1 10.2 10.3 10.4 10.5 10.6 10.7 10.8 10.9 11 11.1 11.2 11.3 11.4 11.5 11.6 11.7 11.8 11.9 12 12.1 12.2 12.3 12.4 12.5 12.6 12.7 12.8 12.9 13 13.1 13.2 13.3 13.4 13.5 13.6 13.7 13.8 13.9 14 14.1 14.2 14.3 14.4 14.5 14.6 14.7 14.8 14.9 15 
seq_id_string case_1_create_seq 
td 0 
tp 15 

# Format of blocks:
#  #  D RF  GX  GY  GZ ADC EXT
[BLOCKS]
   1  1  0   0   0   0  0  0
   2  0  1   0   0   0  0  0
   3  0  0   1   1   1  0  0
   4  0  0   0   0   0  1  0
   5  1  0   0   0   0  0  0
   6  0  2   0   0   0  0  0
   7  0  0   1   1   1  0  0
   8  0  0   0   0   0  1  0
   9  1  0   0   0   0  0  0
  10  0  3   0   0   0  0  0
  11  0  0   1   1   1  0  0
  12  0  0   0   0   0  1  0
  13  1  0   0   0   0  0  0
  14  0  4   0   0   0  0  0
  15  0  0   1   1   1  0  0
  16  0  0   0   0   0  1  0
  17  1  0   0   0   0  0  0
  18  0  5   0   0   0  0  0
  19  0  0   1   1   1  0  0
  20  0  0   0   0   0  1  0
  21  1  0   0   0   0  0  0
  22  0  6   0   0   0  0  0
  23  0  0   1   1   1  0  0
  24  0  0   0   0   0  1  0
  25  1  0   0   0   0  0  0
  26  0  7   0   0   0  0  0
  27  0  0   1   1   1  0  0
  28  0  0   0   0   0  1  0
  29  1  0   0   0   0  0  0
  30  0  8   0   0   0  0  0
  31  0  0   1   1   1  0  0
  32  0  0   0   0   0  1  0
  33  1  0   0   0   0  0  0
  34  0  9   0   0   0  0  0
  35  0  0   1   1   1  0  0
  36  0  0   0   0   0  1  0
  37  1  0   0   0   0  0  0
  38  0 10   0   0   0  0  0
  39  0  0   1   1   1  0  0
  40  0  0   0   0   0  1  0
  41  1  0   0   0   0  0  0
  42  0 11   0   0   0  0  0
  43  0  0   1   1   1  0  0
  44  0  0   0   0   0  1  0
  45  1  0   0   0   0  0  0
  46  0 12   0   0   0  0  0
  47  0  0   1   1   1  0  0
  48  0  0   0   0   0  1  0
  49  1  0   0   0   0  0  0
  50  0 13   0   0   0  0  0
  51  0  0   1   1   1  0  0
  52  0  0   0   0   0  1  0
  53  1  0   0   0   0  0  0
  54  0 14   0   0   0  0  0
  55  0  0   1   1   1  0  0
  56  0  0   0   0   0  1  0
  57  1  0   0   0   0  0  0
  58  0 15   0   0   0  0  0
  59  0  0   1   1   1  0  0
  60  0  0   0   0   0  1  0
  61  1  0   0   0   0  0  0
  62  0 16   0   0   0  0  0
  63  0  0   1   1   1  0  0
  64  0  0   0   0   0  1  0
  65  1  0   0   0   0  0  0
  66  0 17   0   0   0  0  0
  67  0  0   1   1   1  0  0
  68  0  0   0   0   0  1  0
  69  1  0   0   0   0  0  0
  70  0 18   0   0   0  0  0
  71  0  0   1   1   1  0  0
  72  0  0   0   0   0  1  0
  73  1  0   0   0   0  0  0
  74  0 19   0   0   0  0  0
  75  0  0   1   1   1  0  0
  76  0  0   0   0   0  1  0
  77  1  0   0   0   0  0  0
  78  0 20   0   0   0  0  0
  79  0  0   1   1   1  0  0
  80  0  0   0   0   0  1  0
  81  1  0   0   0   0  0  0
  82  0 21   0   0   0  0  0
  83  0  0   1   1   1  0  0
  84  0  0   0   0   0  1  0
  85  1  0   0   0   0  0  0
  86  0 22   0   0   0  0  0
  87  0  0   1   1   1  0  0
  88  0  0   0   0   0  1  0
  89  1  0   0   0   0  0  0
  90  0 23   0   0   0  0  0
  91  0  0   1   1   1  0  0
  92  0  0   0   0   0  1  0
  93  1  0   0   0   0  0  0
  94  0 24   0   0   0  0  0
  95  0  0   1   1   1  0  0
  96  0  0   0   0   0  1  0
  97  1  0   0   0   0  0  0
  98  0 25   0   0   0  0  0
  99  0  0   1   1   1  0  0
 100  0  0   0   0   0  1  0
 101  1  0   0   0   0  0  0
 102  0 26   0   0   0  0  0
 103  0  0   1   1   1  0  0
 104  0  0   0   0   0  1  0
 105  1  0   0   0   0  0  0
 106  0 27   0   0   0  0  0
 107  0  0   1   1   1  0  0
 108  0  0   0   0   0  1  0
 109  1  0   0   0   0  0  0
 110  0 28   0   0   0  0  0
 111  0  0   1   1   1  0  0
 112  0  0   0   0   0  1  0
 113  1  0   0   0   0  0  0
 114  0 29   0   0   0  0  0
 115  0  0   1   1   1  0  0
 116  0  0   0   0   0  1  0
 117  1  0   0   0   0  0  0
 118  0 30   0   0   0  0  0
 119  0  0   1   1   1  0  0
 120  0  0   0   0   0  1  0
 121  1  0   0   0   0  0  0
 122  0 31   0   0   0  0  0
 123  0  0   1   1   1  0  0
 124  0  0   0   0   0  1  0
 125  1  0   0   0   0  0  0
 126  0 32   0   0   0  0  0
 127  0  0   1   1   1  0  0
 128  0  0   0   0   0  1  0
 129  1  0   0   0   0  0  0
 130  0 33   0   0   0  0  0
 131  0  0   1   1   1  0  0
 132  0  0   0   0   0  1  0
 133  1  0   0   0   0  0  0
 134  0 34   0   0   0  0  0
 135  0  0   1   1   1  0  0
 136  0  0   0   0   0  1  0
 137  1  0   0   0   0  0  0
 138  0 35   0   0   0  0  0
 139  0  0   1   1   1  0  0
 140  0  0   0   0   0  1  0
 141  1  0   0   0   0  0  0
 142  0 36   0   0   0  0  0
 143  0  0   1   1   1  0  0
 144  0  0   0   0   0  1  0
 145  1  0   0   0   0  0  0
 146  0 37   0   0   0  0  0
 147  0  0   1   1   1  0  0
 148  0  0   0   0   0  1  0
 149  1  0   0   0   0  0  0
 150  0 38   0   0   0  0  0
 151  0  0   1   1   1  0  0
 152  0  0   0   0   0  1  0
 153  1  0   0   0   0  0  0
 154  0 39   0   0   0  0  0
 155  0  0   1   1   1  0  0
 156  0  0   0   0   0  1  0
 157  1  0   0   0   0  0  0
 158  0 40   0   0   0  0  0
 159  0  0   1   1   1  0  0
 160  0  0   0   0   0  1  0
 161  1  0   0   0   0  0  0
 162  0 41   0   0   0  0  0
 163  0  0   1   1   1  0  0
 164  0  0   0   0   0  1  0
 165  1  0   0   0   0  0  0
 166  0 42   0   0   0  0  0
 167  0  0   1   1   1  0  0
 168  0  0   0   0   0  1  0
 169  1  0   0   0   0  0  0
 170  0 43   0   0   0  0  0
 171  0  0   1   1   1  0  0
 172  0  0   0   0   0  1  0
 173  1  0   0   0   0  0  0
 174  0 44   0   0   0  0  0
 175  0  0   1   1   1  0  0
 176  0  0   0   0   0  1  0
 177  1  0   0   0   0  0  0
 178  0 45   0   0   0  0  0
 179  0  0   1   1   1  0  0
 180  0  0   0   0   0  1  0
 181  1  0   0   0   0  0  0
 182  0 46   0   0   0  0  0
 183  0  0   1   1   1  0  0
 184  0  0   0   0   0  1  0
 185  1  0   0   0   0  0  0
 186  0 47   0   0   0  0  0
 187  0  0   1   1   1  0  0
 188  0  0   0   0   0  1  0
 189  1  0   0   0   0  0  0
 190  0 48   0   0   0  0  0
 191  0  0   1   1   1  0  0
 192  0  0   0   0   0  1  0
 193  1  0   0   0   0  0  0
 194  0 49   0   0   0  0  0
 195  0  0   1   1   1  0  0
 196  0  0   0   0   0  1  0
 197  1  0   0   0   0  0  0
 198  0 50   0   0   0  0  0
 199  0  0   1   1   1  0  0
 200  0  0   0   0   0  1  0
 201  1  0   0   0   0  0  0
 202  0 51   0   0   0  0  0
 203  0  0   1   1   1  0  0
 204  0  0   0   0   0  1  0
 205  1  0   0   0   0  0  0
 206  0 52   0   0   0  0  0
 207  0  0   1   1   1  0  0
 208  0  0   0   0   0  1  0
 209  1  0   0   0   0  0  0
 210  0 53   0   0   0  0  0
 211  0  0   1   1   1  0  0
 212  0  0   0   0   0  1  0
 213  1  0   0   0   0  0  0
 214  0 54   0   0   0  0  0
 215  0  0   1   1   1  0  0
 216  0  0   0   0   0  1  0
 217  1  0   0   0   0  0  0
 218  0 55   0   0   0  0  0
 219  0  0   1   1   1  0  0
 220  0  0   0   0   0  1  0
 221  1  0   0   0   0  0  0
 222  0 56   0   0   0  0  0
 223  0  0   1   1   1  0  0
 224  0  0   0   0   0  1  0
 225  1  0   0   0   0  0  0
 226  0 57   0   0   0  0  0
 227  0  0   1   1   1  0  0
 228  0  0   0   0   0  1  0
 229  1  0   0   0   0  0  0
 230  0 58   0   0   0  0  0
 231  0  0   1   1   1  0  0
 232  0  0   0   0   0  1  0
 233  1  0   0   0   0  0  0
 234  0 59   0   0   0  0  0
 235  0  0   1   1   1  0  0
 236  0  0   0   0   0  1  0
 237  1  0   0   0   0  0  0
 238  0 60   0   0   0  0  0
 239  0  0   1   1   1  0  0
 240  0  0   0   0   0  1  0
 241  1  0   0   0   0  0  0
 242  0 61   0   0   0  0  0
 243  0  0   1   1   1  0  0
 244  0  0   0   0   0  1  0
 245  1  0   0   0   0  0  0
 246  0 62   0   0   0  0  0
 247  0  0   1   1   1  0  0
 248  0  0   0   0   0  1  0
 249  1  0   0   0   0  0  0
 250  0 63   0   0   0  0  0
 251  0  0   1   1   1  0  0
 252  0  0   0   0   0  1  0
 253  1  0   0   0   0  0  0
 254  0 64   0   0   0  0  0
 255  0  0   1   1   1  0  0
 256  0  0   0   0   0  1  0
 257  1  0   0   0   0  0  0
 258  0 65   0   0   0  0  0
 259  0  0   1   1   1  0  0
 260  0  0   0   0   0  1  0
 261  1  0   0   0   0  0  0
 262  0 66   0   0   0  0  0
 263  0  0   1   1   1  0  0
 264  0  0   0   0   0  1  0
 265  1  0   0   0   0  0  0
 266  0 67   0   0   0  0  0
 267  0  0   1   1   1  0  0
 268  0  0   0   0   0  1  0
 269  1  0   0   0   0  0  0
 270  0 68   0   0   0  0  0
 271  0  0   1   1   1  0  0
 272  0  0   0   0   0  1  0
 273  1  0   0   0   0  0  0
 274  0 69   0   0   0  0  0
 275  0  0   1   1   1  0  0
 276  0  0   0   0   0  1  0
 277  1  0   0   0   0  0  0
 278  0 70   0   0   0  0  0
 279  0  0   1   1   1  0  0
 280  0  0   0   0   0  1  0
[RF]
1      85.1528 1 2 100 -199258 0
2      85.1528 1 2 100 -1915.94 0
3      85.1528 1 2 100 -1903.17 0
4      85.1528 1 2 100 -1890.39 0
5      85.1528 1 2 100 -1877.62 0
6      85.1528 1 2 100 -1864.85 0
7      85.1528 1 2 100 -1852.07 0
8      85.1528 1 2 100 -1839.3 0
9      85.1528 1 2 100 -1826.53 0
10      85.1528 1 2 100 -1813.75 0
11      85.1528 1 2 100 -1800.98 0
12      85.1528 1 2 100 -1788.21 0
13      85.1528 1 2 100 -1775.44 0
14      85.1528 1 2 100 -1762.66 0
15      85.1528 1 2 100 -1749.89 0
16      85.1528 1 2 100 -1737.12 0
17      85.1528 1 2 100 -1724.34 0
18      85.1528 1 2 100 -1711.57 0
19      85.1528 1 2 100 -1698.8 0
20      85.1528 1 2 100 -1686.03 0
21      85.1528 1 2 100 -1673.25 0
22      85.1528 1 2 100 -1660.48 0
23      85.1528 1 2 100 -1647.71 0
24      85.1528 1 2 100 -1634.93 0
25      85.1528 1 2 100 -1622.16 0
26      85.1528 1 2 100 -1609.39 0
27      85.1528 1 2 100 -1596.62 0
28      85.1528 1 2 100 -1583.84 0
29      85.1528 1 2 100 -1571.07 0
30      85.1528 1 2 100 -1558.3 0
31      85.1528 1 2 100 -1545.52 0
32      85.1528 1 2 100 -1532.75 0
33      85.1528 1 2 100 -1519.98 0
34      85.1528 1 2 100 -1507.2 0
35      85.1528 1 2 100 -1494.43 0
36      85.1528 1 2 100 -1481.66 0
37      85.1528 1 2 100 -1468.89 0
38      85.1528 1 2 100 -1456.11 0
39      85.1528 1 2 100 -1443.34 0
40      85.1528 1 2 100 -1430.57 0
41      85.1528 1 2 100 -1417.79 0
42      85.1528 1 2 100 -1405.02 0
43      85.1528 1 2 100 -1392.25 0
44      85.1528 1 2 100 -1379.48 0
45      85.1528 1 2 100 -1366.7 0
46      85.1528 1 2 100 -1353.93 0
47      85.1528 1 2 100 -1341.16 0
48      85.1528 1 2 100 -1328.38 0
49      85.1528 1 2 100 -1315.61 0
50      85.1528 1 2 100 -1302.84 0
51      85.1528 1 2 100 -1290.06 0
52      85.1528 1 2 100 -1277.29 0
53      85.1528 1 2 100 -1264.52 0
54      85.1528 1 2 100 -1251.75 0
55      85.1528 1 2 100 -1238.97 0
56      85.1528 1 2 100 -1226.2 0
57      85.1528 1 2 100 -1213.43 0
58      85.1528 1 2 100 -1200.65 0
59      85.1528 1 2 100 -1187.88 0
60      85.1528 1 2 100 -1175.11 0
61      85.1528 1 2 100 -1162.34 0
62      85.1528 1 2 100 -1149.56 0
63      85.1528 1 2 100 -1136.79 0
64      85.1528 1 2 100 -1124.02 0
65      85.1528 1 2 100 -1111.24 0
66      85.1528 1 2 100 -1098.47 0
67      85.1528 1 2 100 -1085.7 0
68      85.1528 1 2 100 -1072.93 0
69      85.1528 1 2 100 -1060.15 0
70      85.1528 1 2 100 -1047.38 0
71      85.1528 1 2 100 -1034.61 0
72      85.1528 1 2 100 -1021.83 0
73      85.1528 1 2 100 -1009.06 0
74      85.1528 1 2 100 -996.288 0
75      85.1528 1 2 100 -983.515 0
76      85.1528 1 2 100 -970.742 0
77      85.1528 1 2 100 -957.969 0
78      85.1528 1 2 100 -945.196 0
79      85.1528 1 2 100 -932.423 0
80      85.1528 1 2 100 -919.65 0
81      85.1528 1 2 100 -906.877 0
82      85.1528 1 2 100 -894.104 0
83      85.1528 1 2 100 -881.331 0
84      85.1528 1 2 100 -868.559 0
85      85.1528 1 2 100 -855.786 0
86      85.1528 1 2 100 -843.013 0
87      85.1528 1 2 100 -830.24 0
88      85.1528 1 2 100 -817.467 0
89      85.1528 1 2 100 -804.694 0
90      85.1528 1 2 100 -791.921 0
91      85.1528 1 2 100 -779.148 0
92      85.1528 1 2 100 -766.375 0
93      85.1528 1 2 100 -753.602 0
94      85.1528 1 2 100 -740.829 0
95      85.1528 1 2 100 -728.056 0
96      85.1528 1 2 100 -715.284 0
97      85.1528 1 2 100 -702.511 0
98      85.1528 1 2 100 -689.738 0
99      85.1528 1 2 100 -676.965 0
100      85.1528 1 2 100 -664.192 0
101      85.1528 1 2 100 -651.419 0
102      85.1528 1 2 100 -638.646 0
103      85.1528 1 2 100 -625.873 0
104      85.1528 1 2 100 -613.1 0
105      85.1528 1 2 100 -600.327 0
106      85.1528 1 2 100 -587.554 0
107      85.1528 1 2 100 -574.781 0
108      85.1528 1 2 100 -562.008 0
109      85.1528 1 2 100 -549.236 0
110      85.1528 1 2 100 -536.463 0
111      85.1528 1 2 100 -523.69 0
112      85.1528 1 2 100 -510.917 0
113      85.1528 1 2 100 -498.144 0
114      85.1528 1 2 100 -485.371 0
115      85.1528 1 2 100 -472.598 0
116      85.1528 1 2 100 -459.825 0
117      85.1528 1 2 100 -447.052 0
118      85.1528 1 2 100 -434.279 0
119      85.1528 1 2 100 -421.506 0
120      85.1528 1 2 100 -408.733 0
121      85.1528 1 2 100 -395.961 0
122      85.1528 1 2 100 -383.188 0
123      85.1528 1 2 100 -370.415 0
124      85.1528 1 2 100 -357.642 0
125      85.1528 1 2 100 -344.869 0
126      85.1528 1 2 100 -332.096 0
127      85.1528 1 2 100 -319.323 0
128      85.1528 1 2 100 -306.55 0
129      85.1528 1 2 100 -293.777 0
130      85.1528 1 2 100 -281.004 0
131      85.1528 1 2 100 -268.231 0
132      85.1528 1 2 100 -255.458 0
133      85.1528 1 2 100 -242.685 0
134      85.1528 1 2 100 -229.913 0
135      85.1528 1 2 100 -217.14 0
136      85.1528 1 2 100 -204.367 0
137      85.1528 1 2 100 -191.594 0
138      85.1528 1 2 100 -178.821 0
139      85.1528 1 2 100 -166.048 0
140      85.1528 1 2 100 -153.275 0
141      85.1528 1 2 100 -140.502 0
142      85.1528 1 2 100 -127.729 0
143      85.1528 1 2 100 -114.956 0
144      85.1528 1 2 100 -102.183 0
145      85.1528 1 2 100 -89.4104 0
146      85.1528 1 2 100 -76.6375 0
147      85.1528 1 2 100 -63.8646 0
148      85.1528 1 2 100 -51.0917 0
149      85.1528 1 2 100 -38.3188 0
150      85.1528 1 2 100 -25.5458 0
151      85.1528 1 2 100 -12.7729 0
152      85.1528 1 2 100 0 0
153      85.1528 1 2 100 12.7729 0
154      85.1528 1 2 100 25.5458 0
155      85.1528 1 2 100 38.3188 0
156      85.1528 1 2 100 51.0917 0
157      85.1528 1 2 100 63.8646 0
158      85.1528 1 2 100 76.6375 0
159      85.1528 1 2 100 89.4104 0
160      85.1528 1 2 100 102.183 0
161      85.1528 1 2 100 114.956 0
162      85.1528 1 2 100 127.729 0
163      85.1528 1 2 100 140.502 0
164      85.1528 1 2 100 153.275 0
165      85.1528 1 2 100 166.048 0
166      85.1528 1 2 100 178.821 0
167      85.1528 1 2 100 191.594 0
168      85.1528 1 2 100 204.367 0
169      85.1528 1 2 100 217.14 0
170      85.1528 1 2 100 229.913 0
171      85.1528 1 2 100 242.685 0
172      85.1528 1 2 100 255.458 0
173      85.1528 1 2 100 268.231 0
174      85.1528 1 2 100 281.004 0
175      85.1528 1 2 100 293.777 0
176      85.1528 1 2 100 306.55 0
177      85.1528 1 2 100 319.323 0
178      85.1528 1 2 100 332.096 0
179      85.1528 1 2 100 344.869 0
180      85.1528 1 2 100 357.642 0
181      85.1528 1 2 100 370.415 0
182      85.1528 1 2 100 383.188 0
183      85.1528 1 2 100 395.961 0
184      85.1528 1 2 100 408.733 0
185      85.1528 1 2 100 421.506 0
186      85.1528 1 2 100 434.279 0
187      85.1528 1 2 100 447.052 0
188      85.1528 1 2 100 459.825 0
189      85.1528 1 2 100 472.598 0
190      85.1528 1 2 100 485.371 0
191      85.1528 1 2 100 498.144 0
192      85.1528 1 2 100 510.917 0
193      85.1528 1 2 100 523.69 0
194      85.1528 1 2 100 536.463 0
195      85.1528 1 2 100 549.236 0
196      85.1528 1 2 100 562.008 0
197      85.1528 1 2 100 574.781 0
198      85.1528 1 2 100 587.554 0
199      85.1528 1 2 100 600.327 0
200      85.1528 1 2 100 613.1 0
201      85.1528 1 2 100 625.873 0
202      85.1528 1 2 100 638.646 0
203      85.1528 1 2 100 651.419 0
204      85.1528 1 2 100 664.192 0
205      85.1528 1 2 100 676.965 0
206      85.1528 1 2 100 689.738 0
207      85.1528 1 2 100 702.511 0
208      85.1528 1 2 100 715.284 0
209      85.1528 1 2 100 728.056 0
210      85.1528 1 2 100 740.829 0
211      85.1528 1 2 100 753.602 0
212      85.1528 1 2 100 766.375 0
213      85.1528 1 2 100 779.148 0
214      85.1528 1 2 100 791.921 0
215      85.1528 1 2 100 804.694 0
216      85.1528 1 2 100 817.467 0
217      85.1528 1 2 100 830.24 0
218      85.1528 1 2 100 843.013 0
219      85.1528 1 2 100 855.786 0
220      85.1528 1 2 100 868.559 0
221      85.1528 1 2 100 881.331 0
222      85.1528 1 2 100 894.104 0
223      85.1528 1 2 100 906.877 0
224      85.1528 1 2 100 919.65 0
225      85.1528 1 2 100 932.423 0
226      85.1528 1 2 100 945.196 0
227      85.1528 1 2 100 957.969 0
228      85.1528 1 2 100 970.742 0
229      85.1528 1 2 100 983.515 0
230      85.1528 1 2 100 996.288 0
231      85.1528 1 2 100 1009.06 0
232      85.1528 1 2 100 1021.83 0
233      85.1528 1 2 100 1034.61 0
234      85.1528 1 2 100 1047.38 0
235      85.1528 1 2 100 1060.15 0
236      85.1528 1 2 100 1072.93 0
237      85.1528 1 2 100 1085.7 0
238      85.1528 1 2 100 1098.47 0
239      85.1528 1 2 100 1111.24 0
240      85.1528 1 2 100 1124.02 0
241      85.1528 1 2 100 1136.79 0
242      85.1528 1 2 100 1149.56 0
243      85.1528 1 2 100 1162.34 0
244      85.1528 1 2 100 1175.11 0
245      85.1528 1 2 100 1187.88 0
246      85.1528 1 2 100 1200.65 0
247      85.1528 1 2 100 1213.43 0
248      85.1528 1 2 100 1226.2 0
249      85.1528 1 2 100 1238.97 0
250      85.1528 1 2 100 1251.75 0
251      85.1528 1 2 100 1264.52 0
252      85.1528 1 2 100 1277.29 0
253      85.1528 1 2 100 1290.06 0
254      85.1528 1 2 100 1302.84 0
255      85.1528 1 2 100 1315.61 0
256      85.1528 1 2 100 1328.38 0
257      85.1528 1 2 100 1341.16 0
258      85.1528 1 2 100 1353.93 0
259      85.1528 1 2 100 1366.7 0
260      85.1528 1 2 100 1379.48 0
261      85.1528 1 2 100 1392.25 0
262      85.1528 1 2 100 1405.02 0
263      85.1528 1 2 100 1417.79 0
264      85.1528 1 2 100 1430.57 0
265      85.1528 1 2 100 1443.34 0
266      85.1528 1 2 100 1456.11 0
267      85.1528 1 2 100 1468.89 0
268      85.1528 1 2 100 1481.66 0
269      85.1528 1 2 100 1494.43 0
270      85.1528 1 2 100 1507.2 0
271      85.1528 1 2 100 1519.98 0
272      85.1528 1 2 100 1532.75 0
273      85.1528 1 2 100 1545.52 0
274      85.1528 1 2 100 1558.3 0
275      85.1528 1 2 100 1571.07 0
276      85.1528 1 2 100 1583.84 0
277      85.1528 1 2 100 1596.62 0
278      85.1528 1 2 100 1609.39 0
279      85.1528 1 2 100 1622.16 0
280      85.1528 1 2 100 1634.93 0
281      85.1528 1 2 100 1647.71 0
282      85.1528 1 2 100 1660.48 0
283      85.1528 1 2 100 1673.25 0
284      85.1528 1 2 100 1686.03 0
285      85.1528 1 2 100 1698.8 0
286      85.1528 1 2 100 1711.57 0
287      85.1528 1 2 100 1724.34 0
288      85.1528 1 2 100 1737.12 0
289      85.1528 1 2 100 1749.89 0
290      85.1528 1 2 100 1762.66 0
291      85.1528 1 2 100 1775.44 0
292      85.1528 1 2 100 1788.21 0
293      85.1528 1 2 100 1800.98 0
294      85.1528 1 2 100 1813.75 0
295      85.1528 1 2 100 1826.53 0
296      85.1528 1 2 100 1839.3 0
297      85.1528 1 2 100 1852.07 0
298      85.1528 1 2 100 1864.85 0
299      85.1528 1 2 100 1877.62 0
300      85.1528 1 2 100 1890.39 0
301      85.1528 1 2 100 1903.17 0
302      85.1528 1 2 100 1915.94 0

# Format of trapezoid gradients:
# id amplitude rise flat fall delay
# ..      Hz/m   us   us   us    us
[TRAP]
 1  1.36243e+06 1000 4500 1000   0

# Format of ADC events:
# id num dwell delay freq phase
# ..  ..    ns    us   Hz   rad
[ADC]
1 1 1000000 0 0 0

# Format of delays:
# id delay (us)
[DELAYS]
1 3500000

# Sequence Shapes
[SHAPES]

shape_id 1
num_samples 15000030
1
0
0
14999997
-1
0
0
27

shape_id 2
num_samples 15000030
0
0
15000028

