# Pulseq sequence file
# Created by PyPulseq

# Created for Pulseq-CEST
# https://pulseq-cest.github.io/
# Created by: https://github.com/pulseq-cest/BMsim_challenge
# Created at: 14-Aug-2023 11:34:16

[VERSION]
major 1
minor 4
revision 0

[DEFINITIONS]
AdcRasterTime 1e-07 
B0 3 
B1pa 1.78 
B1rms 1.99619393 
BlockDurationRaster 1e-05 
FREQ 127.7292 
GradientRasterTime 1e-05 
M0_offset -300 
RadiofrequencyRasterTime 1e-06 
Trec 3.5 
Trec_M0 3.5 
Tsat 0.05 
n_pulses 1 
num_meas 202 
offsets_ppm -300 -2 -1.98 -1.96 -1.94 -1.92 -1.9 -1.88 -1.86 -1.84 -1.82 -1.8 -1.78 -1.76 -1.74 -1.72 -1.7 -1.68 -1.66 -1.64 -1.62 -1.6 -1.58 -1.56 -1.54 -1.52 -1.5 -1.48 -1.46 -1.44 -1.42 -1.4 -1.38 -1.36 -1.34 -1.32 -1.3 -1.28 -1.26 -1.24 -1.22 -1.2 -1.18 -1.16 -1.14 -1.12 -1.1 -1.08 -1.06 -1.04 -1.02 -1 -0.98 -0.96 -0.94 -0.92 -0.9 -0.88 -0.86 -0.84 -0.82 -0.8 -0.78 -0.76 -0.74 -0.72 -0.7 -0.68 -0.66 -0.64 -0.62 -0.6 -0.58 -0.56 -0.54 -0.52 -0.5 -0.48 -0.46 -0.44 -0.42 -0.4 -0.38 -0.36 -0.34 -0.32 -0.3 -0.28 -0.26 -0.24 -0.22 -0.2 -0.18 -0.16 -0.14 -0.12 -0.1 -0.08 -0.06 -0.04 -0.02 0 0.02 0.04 0.06 0.08 0.1 0.12 0.14 0.16 0.18 0.2 0.22 0.24 0.26 0.28 0.3 0.32 0.34 0.36 0.38 0.4 0.42 0.44 0.46 0.48 0.5 0.52 0.54 0.56 0.58 0.6 0.62 0.64 0.66 0.68 0.7 0.72 0.74 0.76 0.78 0.8 0.82 0.84 0.86 0.88 0.9 0.92 0.94 0.96 0.98 1 1.02 1.04 1.06 1.08 1.1 1.12 1.14 1.16 1.18 1.2 1.22 1.24 1.26 1.28 1.3 1.32 1.34 1.36 1.38 1.4 1.42 1.44 1.46 1.48 1.5 1.52 1.54 1.56 1.58 1.6 1.62 1.64 1.66 1.68 1.7 1.72 1.74 1.76 1.78 1.8 1.82 1.84 1.86 1.88 1.9 1.92 1.94 1.96 1.98 2 
seq_id_string case_5_pypulseq_v140 
td 0.005 
tp 0.05 

# Format of blocks:
# NUM DUR RF  GX  GY  GZ  ADC  EXT
[BLOCKS]
  1 350000   0   0   0   0  0  0
  2 5000   1   0   0   0  0  0
  3 650   0   1   1   1  0  0
  4 100   0   0   0   0  1  0
  5 350000   0   0   0   0  0  0
  6 5000   2   0   0   0  0  0
  7 650   0   1   1   1  0  0
  8 100   0   0   0   0  1  0
  9 350000   0   0   0   0  0  0
 10 5000   3   0   0   0  0  0
 11 650   0   1   1   1  0  0
 12 100   0   0   0   0  1  0
 13 350000   0   0   0   0  0  0
 14 5000   4   0   0   0  0  0
 15 650   0   1   1   1  0  0
 16 100   0   0   0   0  1  0
 17 350000   0   0   0   0  0  0
 18 5000   5   0   0   0  0  0
 19 650   0   1   1   1  0  0
 20 100   0   0   0   0  1  0
 21 350000   0   0   0   0  0  0
 22 5000   6   0   0   0  0  0
 23 650   0   1   1   1  0  0
 24 100   0   0   0   0  1  0
 25 350000   0   0   0   0  0  0
 26 5000   7   0   0   0  0  0
 27 650   0   1   1   1  0  0
 28 100   0   0   0   0  1  0
 29 350000   0   0   0   0  0  0
 30 5000   8   0   0   0  0  0
 31 650   0   1   1   1  0  0
 32 100   0   0   0   0  1  0
 33 350000   0   0   0   0  0  0
 34 5000   9   0   0   0  0  0
 35 650   0   1   1   1  0  0
 36 100   0   0   0   0  1  0
 37 350000   0   0   0   0  0  0
 38 5000  10   0   0   0  0  0
 39 650   0   1   1   1  0  0
 40 100   0   0   0   0  1  0
 41 350000   0   0   0   0  0  0
 42 5000  11   0   0   0  0  0
 43 650   0   1   1   1  0  0
 44 100   0   0   0   0  1  0
 45 350000   0   0   0   0  0  0
 46 5000  12   0   0   0  0  0
 47 650   0   1   1   1  0  0
 48 100   0   0   0   0  1  0
 49 350000   0   0   0   0  0  0
 50 5000  13   0   0   0  0  0
 51 650   0   1   1   1  0  0
 52 100   0   0   0   0  1  0
 53 350000   0   0   0   0  0  0
 54 5000  14   0   0   0  0  0
 55 650   0   1   1   1  0  0
 56 100   0   0   0   0  1  0
 57 350000   0   0   0   0  0  0
 58 5000  15   0   0   0  0  0
 59 650   0   1   1   1  0  0
 60 100   0   0   0   0  1  0
 61 350000   0   0   0   0  0  0
 62 5000  16   0   0   0  0  0
 63 650   0   1   1   1  0  0
 64 100   0   0   0   0  1  0
 65 350000   0   0   0   0  0  0
 66 5000  17   0   0   0  0  0
 67 650   0   1   1   1  0  0
 68 100   0   0   0   0  1  0
 69 350000   0   0   0   0  0  0
 70 5000  18   0   0   0  0  0
 71 650   0   1   1   1  0  0
 72 100   0   0   0   0  1  0
 73 350000   0   0   0   0  0  0
 74 5000  19   0   0   0  0  0
 75 650   0   1   1   1  0  0
 76 100   0   0   0   0  1  0
 77 350000   0   0   0   0  0  0
 78 5000  20   0   0   0  0  0
 79 650   0   1   1   1  0  0
 80 100   0   0   0   0  1  0
 81 350000   0   0   0   0  0  0
 82 5000  21   0   0   0  0  0
 83 650   0   1   1   1  0  0
 84 100   0   0   0   0  1  0
 85 350000   0   0   0   0  0  0
 86 5000  22   0   0   0  0  0
 87 650   0   1   1   1  0  0
 88 100   0   0   0   0  1  0
 89 350000   0   0   0   0  0  0
 90 5000  23   0   0   0  0  0
 91 650   0   1   1   1  0  0
 92 100   0   0   0   0  1  0
 93 350000   0   0   0   0  0  0
 94 5000  24   0   0   0  0  0
 95 650   0   1   1   1  0  0
 96 100   0   0   0   0  1  0
 97 350000   0   0   0   0  0  0
 98 5000  25   0   0   0  0  0
 99 650   0   1   1   1  0  0
100 100   0   0   0   0  1  0
101 350000   0   0   0   0  0  0
102 5000  26   0   0   0  0  0
103 650   0   1   1   1  0  0
104 100   0   0   0   0  1  0
105 350000   0   0   0   0  0  0
106 5000  27   0   0   0  0  0
107 650   0   1   1   1  0  0
108 100   0   0   0   0  1  0
109 350000   0   0   0   0  0  0
110 5000  28   0   0   0  0  0
111 650   0   1   1   1  0  0
112 100   0   0   0   0  1  0
113 350000   0   0   0   0  0  0
114 5000  29   0   0   0  0  0
115 650   0   1   1   1  0  0
116 100   0   0   0   0  1  0
117 350000   0   0   0   0  0  0
118 5000  30   0   0   0  0  0
119 650   0   1   1   1  0  0
120 100   0   0   0   0  1  0
121 350000   0   0   0   0  0  0
122 5000  31   0   0   0  0  0
123 650   0   1   1   1  0  0
124 100   0   0   0   0  1  0
125 350000   0   0   0   0  0  0
126 5000  32   0   0   0  0  0
127 650   0   1   1   1  0  0
128 100   0   0   0   0  1  0
129 350000   0   0   0   0  0  0
130 5000  33   0   0   0  0  0
131 650   0   1   1   1  0  0
132 100   0   0   0   0  1  0
133 350000   0   0   0   0  0  0
134 5000  34   0   0   0  0  0
135 650   0   1   1   1  0  0
136 100   0   0   0   0  1  0
137 350000   0   0   0   0  0  0
138 5000  35   0   0   0  0  0
139 650   0   1   1   1  0  0
140 100   0   0   0   0  1  0
141 350000   0   0   0   0  0  0
142 5000  36   0   0   0  0  0
143 650   0   1   1   1  0  0
144 100   0   0   0   0  1  0
145 350000   0   0   0   0  0  0
146 5000  37   0   0   0  0  0
147 650   0   1   1   1  0  0
148 100   0   0   0   0  1  0
149 350000   0   0   0   0  0  0
150 5000  38   0   0   0  0  0
151 650   0   1   1   1  0  0
152 100   0   0   0   0  1  0
153 350000   0   0   0   0  0  0
154 5000  39   0   0   0  0  0
155 650   0   1   1   1  0  0
156 100   0   0   0   0  1  0
157 350000   0   0   0   0  0  0
158 5000  40   0   0   0  0  0
159 650   0   1   1   1  0  0
160 100   0   0   0   0  1  0
161 350000   0   0   0   0  0  0
162 5000  41   0   0   0  0  0
163 650   0   1   1   1  0  0
164 100   0   0   0   0  1  0
165 350000   0   0   0   0  0  0
166 5000  42   0   0   0  0  0
167 650   0   1   1   1  0  0
168 100   0   0   0   0  1  0
169 350000   0   0   0   0  0  0
170 5000  43   0   0   0  0  0
171 650   0   1   1   1  0  0
172 100   0   0   0   0  1  0
173 350000   0   0   0   0  0  0
174 5000  44   0   0   0  0  0
175 650   0   1   1   1  0  0
176 100   0   0   0   0  1  0
177 350000   0   0   0   0  0  0
178 5000  45   0   0   0  0  0
179 650   0   1   1   1  0  0
180 100   0   0   0   0  1  0
181 350000   0   0   0   0  0  0
182 5000  46   0   0   0  0  0
183 650   0   1   1   1  0  0
184 100   0   0   0   0  1  0
185 350000   0   0   0   0  0  0
186 5000  47   0   0   0  0  0
187 650   0   1   1   1  0  0
188 100   0   0   0   0  1  0
189 350000   0   0   0   0  0  0
190 5000  48   0   0   0  0  0
191 650   0   1   1   1  0  0
192 100   0   0   0   0  1  0
193 350000   0   0   0   0  0  0
194 5000  49   0   0   0  0  0
195 650   0   1   1   1  0  0
196 100   0   0   0   0  1  0
197 350000   0   0   0   0  0  0
198 5000  50   0   0   0  0  0
199 650   0   1   1   1  0  0
200 100   0   0   0   0  1  0
201 350000   0   0   0   0  0  0
202 5000  51   0   0   0  0  0
203 650   0   1   1   1  0  0
204 100   0   0   0   0  1  0
205 350000   0   0   0   0  0  0
206 5000  52   0   0   0  0  0
207 650   0   1   1   1  0  0
208 100   0   0   0   0  1  0
209 350000   0   0   0   0  0  0
210 5000  53   0   0   0  0  0
211 650   0   1   1   1  0  0
212 100   0   0   0   0  1  0
213 350000   0   0   0   0  0  0
214 5000  54   0   0   0  0  0
215 650   0   1   1   1  0  0
216 100   0   0   0   0  1  0
217 350000   0   0   0   0  0  0
218 5000  55   0   0   0  0  0
219 650   0   1   1   1  0  0
220 100   0   0   0   0  1  0
221 350000   0   0   0   0  0  0
222 5000  56   0   0   0  0  0
223 650   0   1   1   1  0  0
224 100   0   0   0   0  1  0
225 350000   0   0   0   0  0  0
226 5000  57   0   0   0  0  0
227 650   0   1   1   1  0  0
228 100   0   0   0   0  1  0
229 350000   0   0   0   0  0  0
230 5000  58   0   0   0  0  0
231 650   0   1   1   1  0  0
232 100   0   0   0   0  1  0
233 350000   0   0   0   0  0  0
234 5000  59   0   0   0  0  0
235 650   0   1   1   1  0  0
236 100   0   0   0   0  1  0
237 350000   0   0   0   0  0  0
238 5000  60   0   0   0  0  0
239 650   0   1   1   1  0  0
240 100   0   0   0   0  1  0
241 350000   0   0   0   0  0  0
242 5000  61   0   0   0  0  0
243 650   0   1   1   1  0  0
244 100   0   0   0   0  1  0
245 350000   0   0   0   0  0  0
246 5000  62   0   0   0  0  0
247 650   0   1   1   1  0  0
248 100   0   0   0   0  1  0
249 350000   0   0   0   0  0  0
250 5000  63   0   0   0  0  0
251 650   0   1   1   1  0  0
252 100   0   0   0   0  1  0
253 350000   0   0   0   0  0  0
254 5000  64   0   0   0  0  0
255 650   0   1   1   1  0  0
256 100   0   0   0   0  1  0
257 350000   0   0   0   0  0  0
258 5000  65   0   0   0  0  0
[RF]
1      141.667 1 2 3 0 -38318.8 0
2      141.667 1 2 3 0 -255.458 0
3      141.667 1 2 3 0 -252.904 0
4      141.667 1 2 3 0 -250.349 0
5      141.667 1 2 3 0 -247.795 0
6      141.667 1 2 3 0 -245.24 0
7      141.667 1 2 3 0 -242.685 0
8      141.667 1 2 3 0 -240.131 0
9      141.667 1 2 3 0 -237.576 0
10      141.667 1 2 3 0 -235.022 0
11      141.667 1 2 3 0 -232.467 0
12      141.667 1 2 3 0 -229.913 0
13      141.667 1 2 3 0 -227.358 0
14      141.667 1 2 3 0 -224.803 0
15      141.667 1 2 3 0 -222.249 0
16      141.667 1 2 3 0 -219.694 0
17      141.667 1 2 3 0 -217.14 0
18      141.667 1 2 3 0 -214.585 0
19      141.667 1 2 3 0 -212.03 0
20      141.667 1 2 3 0 -209.476 0
21      141.667 1 2 3 0 -206.921 0
22      141.667 1 2 3 0 -204.367 0
23      141.667 1 2 3 0 -201.812 0
24      141.667 1 2 3 0 -199.258 0
25      141.667 1 2 3 0 -196.703 0
26      141.667 1 2 3 0 -194.148 0
27      141.667 1 2 3 0 -191.594 0
28      141.667 1 2 3 0 -189.039 0
29      141.667 1 2 3 0 -186.485 0
30      141.667 1 2 3 0 -183.93 0
31      141.667 1 2 3 0 -181.375 0
32      141.667 1 2 3 0 -178.821 0
33      141.667 1 2 3 0 -176.266 0
34      141.667 1 2 3 0 -173.712 0
35      141.667 1 2 3 0 -171.157 0
36      141.667 1 2 3 0 -168.603 0
37      141.667 1 2 3 0 -166.048 0
38      141.667 1 2 3 0 -163.493 0
39      141.667 1 2 3 0 -160.939 0
40      141.667 1 2 3 0 -158.384 0
41      141.667 1 2 3 0 -155.83 0
42      141.667 1 2 3 0 -153.275 0
43      141.667 1 2 3 0 -150.72 0
44      141.667 1 2 3 0 -148.166 0
45      141.667 1 2 3 0 -145.611 0
46      141.667 1 2 3 0 -143.057 0
47      141.667 1 2 3 0 -140.502 0
48      141.667 1 2 3 0 -137.948 0
49      141.667 1 2 3 0 -135.393 0
50      141.667 1 2 3 0 -132.838 0
51      141.667 1 2 3 0 -130.284 0
52      141.667 1 2 3 0 -127.729 0
53      141.667 1 2 3 0 -125.175 0
54      141.667 1 2 3 0 -122.62 0
55      141.667 1 2 3 0 -120.065 0
56      141.667 1 2 3 0 -117.511 0
57      141.667 1 2 3 0 -114.956 0
58      141.667 1 2 3 0 -112.402 0
59      141.667 1 2 3 0 -109.847 0
60      141.667 1 2 3 0 -107.293 0
61      141.667 1 2 3 0 -104.738 0
62      141.667 1 2 3 0 -102.183 0
63      141.667 1 2 3 0 -99.6288 0
64      141.667 1 2 3 0 -97.0742 0
65      141.667 1 2 3 0 -94.5196 0
66      141.667 1 2 3 0 -91.965 0
67      141.667 1 2 3 0 -89.4104 0
68      141.667 1 2 3 0 -86.8559 0
69      141.667 1 2 3 0 -84.3013 0
70      141.667 1 2 3 0 -81.7467 0
71      141.667 1 2 3 0 -79.1921 0
72      141.667 1 2 3 0 -76.6375 0
73      141.667 1 2 3 0 -74.0829 0
74      141.667 1 2 3 0 -71.5284 0
75      141.667 1 2 3 0 -68.9738 0
76      141.667 1 2 3 0 -66.4192 0
77      141.667 1 2 3 0 -63.8646 0
78      141.667 1 2 3 0 -61.31 0
79      141.667 1 2 3 0 -58.7554 0
80      141.667 1 2 3 0 -56.2008 0
81      141.667 1 2 3 0 -53.6463 0
82      141.667 1 2 3 0 -51.0917 0
83      141.667 1 2 3 0 -48.5371 0
84      141.667 1 2 3 0 -45.9825 0
85      141.667 1 2 3 0 -43.4279 0
86      141.667 1 2 3 0 -40.8733 0
87      141.667 1 2 3 0 -38.3188 0
88      141.667 1 2 3 0 -35.7642 0
89      141.667 1 2 3 0 -33.2096 0
90      141.667 1 2 3 0 -30.655 0
91      141.667 1 2 3 0 -28.1004 0
92      141.667 1 2 3 0 -25.5458 0
93      141.667 1 2 3 0 -22.9913 0
94      141.667 1 2 3 0 -20.4367 0
95      141.667 1 2 3 0 -17.8821 0
96      141.667 1 2 3 0 -15.3275 0
97      141.667 1 2 3 0 -12.7729 0
98      141.667 1 2 3 0 -10.2183 0
99      141.667 1 2 3 0 -7.66375 0
100      141.667 1 2 3 0 -5.10917 0
101      141.667 1 2 3 0 -2.55458 0
102      141.667 1 2 3 0 0 0
103      141.667 1 2 3 0 2.55458 0
104      141.667 1 2 3 0 5.10917 0
105      141.667 1 2 3 0 7.66375 0
106      141.667 1 2 3 0 10.2183 0
107      141.667 1 2 3 0 12.7729 0
108      141.667 1 2 3 0 15.3275 0
109      141.667 1 2 3 0 17.8821 0
110      141.667 1 2 3 0 20.4367 0
111      141.667 1 2 3 0 22.9913 0
112      141.667 1 2 3 0 25.5458 0
113      141.667 1 2 3 0 28.1004 0
114      141.667 1 2 3 0 30.655 0
115      141.667 1 2 3 0 33.2096 0
116      141.667 1 2 3 0 35.7642 0
117      141.667 1 2 3 0 38.3188 0
118      141.667 1 2 3 0 40.8733 0
119      141.667 1 2 3 0 43.4279 0
120      141.667 1 2 3 0 45.9825 0
121      141.667 1 2 3 0 48.5371 0
122      141.667 1 2 3 0 51.0917 0
123      141.667 1 2 3 0 53.6463 0
124      141.667 1 2 3 0 56.2008 0
125      141.667 1 2 3 0 58.7554 0
126      141.667 1 2 3 0 61.31 0
127      141.667 1 2 3 0 63.8646 0
128      141.667 1 2 3 0 66.4192 0
129      141.667 1 2 3 0 68.9738 0
130      141.667 1 2 3 0 71.5284 0
131      141.667 1 2 3 0 74.0829 0
132      141.667 1 2 3 0 76.6375 0
133      141.667 1 2 3 0 79.1921 0
134      141.667 1 2 3 0 81.7467 0
135      141.667 1 2 3 0 84.3013 0
136      141.667 1 2 3 0 86.8559 0
137      141.667 1 2 3 0 89.4104 0
138      141.667 1 2 3 0 91.965 0
139      141.667 1 2 3 0 94.5196 0
140      141.667 1 2 3 0 97.0742 0
141      141.667 1 2 3 0 99.6288 0
142      141.667 1 2 3 0 102.183 0
143      141.667 1 2 3 0 104.738 0
144      141.667 1 2 3 0 107.293 0
145      141.667 1 2 3 0 109.847 0
146      141.667 1 2 3 0 112.402 0
147      141.667 1 2 3 0 114.956 0
148      141.667 1 2 3 0 117.511 0
149      141.667 1 2 3 0 120.065 0
150      141.667 1 2 3 0 122.62 0
151      141.667 1 2 3 0 125.175 0
152      141.667 1 2 3 0 127.729 0
153      141.667 1 2 3 0 130.284 0
154      141.667 1 2 3 0 132.838 0
155      141.667 1 2 3 0 135.393 0
156      141.667 1 2 3 0 137.948 0
157      141.667 1 2 3 0 140.502 0
158      141.667 1 2 3 0 143.057 0
159      141.667 1 2 3 0 145.611 0
160      141.667 1 2 3 0 148.166 0
161      141.667 1 2 3 0 150.72 0
162      141.667 1 2 3 0 153.275 0
163      141.667 1 2 3 0 155.83 0
164      141.667 1 2 3 0 158.384 0
165      141.667 1 2 3 0 160.939 0
166      141.667 1 2 3 0 163.493 0
167      141.667 1 2 3 0 166.048 0
168      141.667 1 2 3 0 168.603 0
169      141.667 1 2 3 0 171.157 0
170      141.667 1 2 3 0 173.712 0
171      141.667 1 2 3 0 176.266 0
172      141.667 1 2 3 0 178.821 0
173      141.667 1 2 3 0 181.375 0
174      141.667 1 2 3 0 183.93 0
175      141.667 1 2 3 0 186.485 0
176      141.667 1 2 3 0 189.039 0
177      141.667 1 2 3 0 191.594 0
178      141.667 1 2 3 0 194.148 0
179      141.667 1 2 3 0 196.703 0
180      141.667 1 2 3 0 199.258 0
181      141.667 1 2 3 0 201.812 0
182      141.667 1 2 3 0 204.367 0
183      141.667 1 2 3 0 206.921 0
184      141.667 1 2 3 0 209.476 0
185      141.667 1 2 3 0 212.03 0
186      141.667 1 2 3 0 214.585 0
187      141.667 1 2 3 0 217.14 0
188      141.667 1 2 3 0 219.694 0
189      141.667 1 2 3 0 222.249 0
190      141.667 1 2 3 0 224.803 0
191      141.667 1 2 3 0 227.358 0
192      141.667 1 2 3 0 229.913 0
193      141.667 1 2 3 0 232.467 0
194      141.667 1 2 3 0 235.022 0
195      141.667 1 2 3 0 237.576 0
196      141.667 1 2 3 0 240.131 0
197      141.667 1 2 3 0 242.685 0
198      141.667 1 2 3 0 245.24 0
199      141.667 1 2 3 0 247.795 0
200      141.667 1 2 3 0 250.349 0
201      141.667 1 2 3 0 252.904 0
202      141.667 1 2 3 0 255.458 0

# Format of trapezoid gradients:
# id amplitude rise flat fall delay
# ..      Hz/m   us   us   us    us
[TRAP]
 1  2.72489e+06 1000 4500 1000   0

# Format of ADC events:
# id num dwell delay freq phase
# ..  ..    ns    us   Hz   rad
[ADC]
1 1 1000000 0 0 0

# Sequence Shapes
[SHAPES]

shape_id 1
num_samples 200
0.00351774603
0.010659124
0.017943185
0.0253717744
0.0329467758
0.0406700973
0.0485436574
0.0565693702
0.0647491305
0.0730847986
0.0815781838
0.0902310286
0.0990449925
0.108021635
0.117162398
0.126468593
0.135941377
0.145581742
0.155390498
0.165368251
0.175515392
0.18583208
0.196318225
0.206973472
0.217797189
0.228788452
0.239946028
0.251268367
0.262753584
0.274399453
0.286203394
0.298162459
0.310273331
0.322532309
0.334935303
0.347477829
0.360155002
0.372961534
0.385891729
0.398939484
0.412098284
0.425361208
0.438720925
0.452169703
0.465699407
0.479301512
0.4929671
0.506686877
0.520451176
0.53424997
0.548072884
0.561909205
0.575747897
0.589577617
0.60338673
0.617163326
0.630895236
0.644570057
0.658175164
0.671697738
0.685124783
0.698443149
0.711639557
0.724700623
0.737612879
0.750362802
0.762936838
0.775321426
0.787503026
0.799468148
0.811203372
0.822695383
0.833930991
0.844897161
0.855581042
0.865969987
0.876051587
0.885813692
0.895244439
0.904332277
0.913065991
0.921434726
0.929428012
0.937035786
0.944248414
0.951056712
0.957451965
0.963425948
0.968970947
0.974079769
0.978745763
0.982962836
0.986725462
0.990028698
0.992868196
0.995240207
0.997141598
0.99856985
0.999523073
1
1
0.999523073
0.99856985
0.997141598
0.995240207
0.992868196
0.990028698
0.986725462
0.982962836
0.978745763
0.974079769
0.968970947
0.963425948
0.957451965
0.951056712
0.944248414
0.937035786
0.929428012
0.921434726
0.913065991
0.904332277
0.895244439
0.885813692
0.876051587
0.865969987
0.855581042
0.844897161
0.833930991
0.822695383
0.811203372
0.799468148
0.787503026
0.775321426
0.762936838
0.750362802
0.737612879
0.724700623
0.711639557
0.698443149
0.685124783
0.671697738
0.658175164
0.644570057
0.630895236
0.617163326
0.60338673
0.589577617
0.575747897
0.561909205
0.548072884
0.53424997
0.520451176
0.506686877
0.4929671
0.479301512
0.465699407
0.452169703
0.438720925
0.425361208
0.412098284
0.398939484
0.385891729
0.372961534
0.360155002
0.347477829
0.334935303
0.322532309
0.310273331
0.298162459
0.286203394
0.274399453
0.262753584
0.251268367
0.239946028
0.228788452
0.217797189
0.206973472
0.196318225
0.18583208
0.175515392
0.165368251
0.155390498
0.145581742
0.135941377
0.126468593
0.117162398
0.108021635
0.0990449925
0.0902310286
0.0815781838
0.0730847986
0.0647491305
0.0565693702
0.0485436574
0.0406700973
0.0329467758
0.0253717744
0.017943185
0.010659124
0.00351774603

shape_id 2
num_samples 200
0
0
198

shape_id 3
num_samples 200
125
250
250
197


[SIGNATURE]
# This is the hash of the Pulseq file, calculated right before the [SIGNATURE] section was added
# It can be reproduced/verified with md5sum if the file trimmed to the position right above [SIGNATURE]
# The new line character preceding [SIGNATURE] BELONGS to the signature (and needs to be stripped away for recalculating/verification)
Type md5
Hash 027e9cadd78ea4c07957259e325a2ab4
