# Pulseq sequence file
# Created by PyPulseq

# Created for Pulseq-CEST
# https://pulseq-cest.github.io/
# Created by: https://github.com/pulseq-cest/BMsim_challenge
# Created at: 12-Jul-2023 13:45:15

[VERSION]
major 1
minor 3
revision 1post1

[DEFINITIONS]
B0 3 
B1pa 1.78 
B1rms 1.99620497 
FREQ 127.7292 
M0_offset -300 
Trec 3.5 
Trec_M0 3.5 
Tsat 0.05 
n_pulses 1 
num_meas 202 
offsets_ppm -300 -2 -1.98 -1.96 -1.94 -1.92 -1.9 -1.88 -1.86 -1.84 -1.82 -1.8 -1.78 -1.76 -1.74 -1.72 -1.7 -1.68 -1.66 -1.64 -1.62 -1.6 -1.58 -1.56 -1.54 -1.52 -1.5 -1.48 -1.46 -1.44 -1.42 -1.4 -1.38 -1.36 -1.34 -1.32 -1.3 -1.28 -1.26 -1.24 -1.22 -1.2 -1.18 -1.16 -1.14 -1.12 -1.1 -1.08 -1.06 -1.04 -1.02 -1 -0.98 -0.96 -0.94 -0.92 -0.9 -0.88 -0.86 -0.84 -0.82 -0.8 -0.78 -0.76 -0.74 -0.72 -0.7 -0.68 -0.66 -0.64 -0.62 -0.6 -0.58 -0.56 -0.54 -0.52 -0.5 -0.48 -0.46 -0.44 -0.42 -0.4 -0.38 -0.36 -0.34 -0.32 -0.3 -0.28 -0.26 -0.24 -0.22 -0.2 -0.18 -0.16 -0.14 -0.12 -0.1 -0.08 -0.06 -0.04 -0.02 0 0.02 0.04 0.06 0.08 0.1 0.12 0.14 0.16 0.18 0.2 0.22 0.24 0.26 0.28 0.3 0.32 0.34 0.36 0.38 0.4 0.42 0.44 0.46 0.48 0.5 0.52 0.54 0.56 0.58 0.6 0.62 0.64 0.66 0.68 0.7 0.72 0.74 0.76 0.78 0.8 0.82 0.84 0.86 0.88 0.9 0.92 0.94 0.96 0.98 1 1.02 1.04 1.06 1.08 1.1 1.12 1.14 1.16 1.18 1.2 1.22 1.24 1.26 1.28 1.3 1.32 1.34 1.36 1.38 1.4 1.42 1.44 1.46 1.48 1.5 1.52 1.54 1.56 1.58 1.6 1.62 1.64 1.66 1.68 1.7 1.72 1.74 1.76 1.78 1.8 1.82 1.84 1.86 1.88 1.9 1.92 1.94 1.96 1.98 2 
seq_id_string case_5_create_sequence_py 
td 0.005 
tp 0.05 

# Format of blocks:
#  #  D RF  GX  GY  GZ ADC EXT
[BLOCKS]
  1  1  0   0   0   0  0  0
  2  0  1   0   0   0  0  0
  3  0  0   1   1   1  0  0
  4  0  0   0   0   0  1  0
  5  1  0   0   0   0  0  0
  6  0  2   0   0   0  0  0
  7  0  0   1   1   1  0  0
  8  0  0   0   0   0  1  0
  9  1  0   0   0   0  0  0
 10  0  3   0   0   0  0  0
 11  0  0   1   1   1  0  0
 12  0  0   0   0   0  1  0
 13  1  0   0   0   0  0  0
 14  0  4   0   0   0  0  0
 15  0  0   1   1   1  0  0
 16  0  0   0   0   0  1  0
 17  1  0   0   0   0  0  0
 18  0  5   0   0   0  0  0
 19  0  0   1   1   1  0  0
 20  0  0   0   0   0  1  0
 21  1  0   0   0   0  0  0
 22  0  6   0   0   0  0  0
 23  0  0   1   1   1  0  0
 24  0  0   0   0   0  1  0
 25  1  0   0   0   0  0  0
 26  0  7   0   0   0  0  0
 27  0  0   1   1   1  0  0
 28  0  0   0   0   0  1  0
 29  1  0   0   0   0  0  0
 30  0  8   0   0   0  0  0
 31  0  0   1   1   1  0  0
 32  0  0   0   0   0  1  0
 33  1  0   0   0   0  0  0
 34  0  9   0   0   0  0  0
 35  0  0   1   1   1  0  0
 36  0  0   0   0   0  1  0
 37  1  0   0   0   0  0  0
 38  0 10   0   0   0  0  0
 39  0  0   1   1   1  0  0
 40  0  0   0   0   0  1  0
 41  1  0   0   0   0  0  0
 42  0 11   0   0   0  0  0
 43  0  0   1   1   1  0  0
 44  0  0   0   0   0  1  0
 45  1  0   0   0   0  0  0
 46  0 12   0   0   0  0  0
 47  0  0   1   1   1  0  0
 48  0  0   0   0   0  1  0
 49  1  0   0   0   0  0  0
 50  0 13   0   0   0  0  0
 51  0  0   1   1   1  0  0
 52  0  0   0   0   0  1  0
 53  1  0   0   0   0  0  0
 54  0 14   0   0   0  0  0
 55  0  0   1   1   1  0  0
 56  0  0   0   0   0  1  0
 57  1  0   0   0   0  0  0
 58  0 15   0   0   0  0  0
 59  0  0   1   1   1  0  0
 60  0  0   0   0   0  1  0
 61  1  0   0   0   0  0  0
 62  0 16   0   0   0  0  0
 63  0  0   1   1   1  0  0
 64  0  0   0   0   0  1  0
 65  1  0   0   0   0  0  0
 66  0 17   0   0   0  0  0
 67  0  0   1   1   1  0  0
 68  0  0   0   0   0  1  0
 69  1  0   0   0   0  0  0
 70  0 18   0   0   0  0  0
 71  0  0   1   1   1  0  0
 72  0  0   0   0   0  1  0
 73  1  0   0   0   0  0  0
 74  0 19   0   0   0  0  0
 75  0  0   1   1   1  0  0
 76  0  0   0   0   0  1  0
 77  1  0   0   0   0  0  0
 78  0 20   0   0   0  0  0
 79  0  0   1   1   1  0  0
 80  0  0   0   0   0  1  0
 81  1  0   0   0   0  0  0
 82  0 21   0   0   0  0  0
 83  0  0   1   1   1  0  0
 84  0  0   0   0   0  1  0
 85  1  0   0   0   0  0  0
 86  0 22   0   0   0  0  0
 87  0  0   1   1   1  0  0
 88  0  0   0   0   0  1  0
 89  1  0   0   0   0  0  0
 90  0 23   0   0   0  0  0
 91  0  0   1   1   1  0  0
 92  0  0   0   0   0  1  0
 93  1  0   0   0   0  0  0
 94  0 24   0   0   0  0  0
 95  0  0   1   1   1  0  0
 96  0  0   0   0   0  1  0
 97  1  0   0   0   0  0  0
 98  0 25   0   0   0  0  0
 99  0  0   1   1   1  0  0
100  0  0   0   0   0  1  0
101  1  0   0   0   0  0  0
102  0 26   0   0   0  0  0
103  0  0   1   1   1  0  0
104  0  0   0   0   0  1  0
105  1  0   0   0   0  0  0
106  0 27   0   0   0  0  0
107  0  0   1   1   1  0  0
108  0  0   0   0   0  1  0
109  1  0   0   0   0  0  0
110  0 28   0   0   0  0  0
111  0  0   1   1   1  0  0
112  0  0   0   0   0  1  0
113  1  0   0   0   0  0  0
114  0 29   0   0   0  0  0
115  0  0   1   1   1  0  0
116  0  0   0   0   0  1  0
117  1  0   0   0   0  0  0
118  0 30   0   0   0  0  0
119  0  0   1   1   1  0  0
120  0  0   0   0   0  1  0
121  1  0   0   0   0  0  0
122  0 31   0   0   0  0  0
123  0  0   1   1   1  0  0
124  0  0   0   0   0  1  0
125  1  0   0   0   0  0  0
126  0 32   0   0   0  0  0
127  0  0   1   1   1  0  0
128  0  0   0   0   0  1  0
129  1  0   0   0   0  0  0
130  0 33   0   0   0  0  0
131  0  0   1   1   1  0  0
132  0  0   0   0   0  1  0
133  1  0   0   0   0  0  0
134  0 34   0   0   0  0  0
135  0  0   1   1   1  0  0
136  0  0   0   0   0  1  0
137  1  0   0   0   0  0  0
138  0 35   0   0   0  0  0
139  0  0   1   1   1  0  0
140  0  0   0   0   0  1  0
141  1  0   0   0   0  0  0
142  0 36   0   0   0  0  0
143  0  0   1   1   1  0  0
144  0  0   0   0   0  1  0
145  1  0   0   0   0  0  0
146  0 37   0   0   0  0  0
147  0  0   1   1   1  0  0
148  0  0   0   0   0  1  0
149  1  0   0   0   0  0  0
150  0 38   0   0   0  0  0
151  0  0   1   1   1  0  0
152  0  0   0   0   0  1  0
153  1  0   0   0   0  0  0
154  0 39   0   0   0  0  0
155  0  0   1   1   1  0  0
156  0  0   0   0   0  1  0
157  1  0   0   0   0  0  0
158  0 40   0   0   0  0  0
159  0  0   1   1   1  0  0
160  0  0   0   0   0  1  0
161  1  0   0   0   0  0  0
162  0 41   0   0   0  0  0
163  0  0   1   1   1  0  0
164  0  0   0   0   0  1  0
165  1  0   0   0   0  0  0
166  0 42   0   0   0  0  0
167  0  0   1   1   1  0  0
168  0  0   0   0   0  1  0
169  1  0   0   0   0  0  0
170  0 43   0   0   0  0  0
171  0  0   1   1   1  0  0
172  0  0   0   0   0  1  0
173  1  0   0   0   0  0  0
174  0 44   0   0   0  0  0
175  0  0   1   1   1  0  0
176  0  0   0   0   0  1  0
177  1  0   0   0   0  0  0
178  0 45   0   0   0  0  0
179  0  0   1   1   1  0  0
180  0  0   0   0   0  1  0
181  1  0   0   0   0  0  0
182  0 46   0   0   0  0  0
183  0  0   1   1   1  0  0
184  0  0   0   0   0  1  0
185  1  0   0   0   0  0  0
186  0 47   0   0   0  0  0
187  0  0   1   1   1  0  0
188  0  0   0   0   0  1  0
189  1  0   0   0   0  0  0
190  0 48   0   0   0  0  0
191  0  0   1   1   1  0  0
192  0  0   0   0   0  1  0
193  1  0   0   0   0  0  0
194  0 49   0   0   0  0  0
195  0  0   1   1   1  0  0
196  0  0   0   0   0  1  0
197  1  0   0   0   0  0  0
198  0 50   0   0   0  0  0
199  0  0   1   1   1  0  0
200  0  0   0   0   0  1  0
201  1  0   0   0   0  0  0
202  0 51   0   0   0  0  0
203  0  0   1   1   1  0  0
204  0  0   0   0   0  1  0
205  1  0   0   0   0  0  0
206  0 52   0   0   0  0  0
207  0  0   1   1   1  0  0
208  0  0   0   0   0  1  0
209  1  0   0   0   0  0  0
210  0 53   0   0   0  0  0
211  0  0   1   1   1  0  0
212  0  0   0   0   0  1  0
213  1  0   0   0   0  0  0
214  0 54   0   0   0  0  0
215  0  0   1   1   1  0  0
216  0  0   0   0   0  1  0
217  1  0   0   0   0  0  0
218  0 55   0   0   0  0  0
219  0  0   1   1   1  0  0
220  0  0   0   0   0  1  0
221  1  0   0   0   0  0  0
222  0 56   0   0   0  0  0
223  0  0   1   1   1  0  0
224  0  0   0   0   0  1  0
225  1  0   0   0   0  0  0
226  0 57   0   0   0  0  0
227  0  0   1   1   1  0  0
228  0  0   0   0   0  1  0
229  1  0   0   0   0  0  0
230  0 58   0   0   0  0  0
231  0  0   1   1   1  0  0
232  0  0   0   0   0  1  0
233  1  0   0   0   0  0  0
234  0 59   0   0   0  0  0
235  0  0   1   1   1  0  0
236  0  0   0   0   0  1  0
237  1  0   0   0   0  0  0
238  0 60   0   0   0  0  0
239  0  0   1   1   1  0  0
240  0  0   0   0   0  1  0
241  1  0   0   0   0  0  0
242  0 61   0   0   0  0  0
243  0  0   1   1   1  0  0
244  0  0   0   0   0  1  0
245  1  0   0   0   0  0  0
246  0 62   0   0   0  0  0
247  0  0   1   1   1  0  0
248  0  0   0   0   0  1  0
249  1  0   0   0   0  0  0
250  0 63   0   0   0  0  0
251  0  0   1   1   1  0  0
252  0  0   0   0   0  1  0
253  1  0   0   0   0  0  0
254  0 64   0   0   0  0  0
255  0  0   1   1   1  0  0
256  0  0   0   0   0  1  0
257  1  0   0   0   0  0  0
258  0 65   0   0   0  0  0
259  0  0   1   1   1  0  0
260  0  0   0   0   0  1  0
261  1  0   0   0   0  0  0
262  0 66   0   0   0  0  0
263  0  0   1   1   1  0  0
264  0  0   0   0   0  1  0
265  1  0   0   0   0  0  0
266  0 67   0   0   0  0  0
267  0  0   1   1   1  0  0
268  0  0   0   0   0  1  0
269  1  0   0   0   0  0  0
270  0 68   0   0   0  0  0
271  0  0   1   1   1  0  0
272  0  0   0   0   0  1  0
273  1  0   0   0   0  0  0
274  0 69   0   0   0  0  0
275  0  0   1   1   1  0  0
276  0  0   0   0   0  1  0
277  1  0   0   0   0  0  0
278  0 70   0   0   0  0  0
279  0  0   1   1   1  0  0
280  0  0   0   0   0  1  0
281  1  0   0   0   0  0  0
282  0 71   0   0   0  0  0
283  0  0   1   1   1  0  0
284  0  0   0   0   0  1  0
285  1  0   0   0   0  0  0
286  0 72   0   0   0  0  0
287  0  0   1   1   1  0  0
288  0  0   0   0   0  1  0
289  1  0   0   0   0  0  0
290  0 73   0   0   0  0  0
291  0  0   1   1   1  0  0
292  0  0   0   0   0  1  0
293  1  0   0   0   0  0  0
294  0 74   0   0   0  0  0
295  0  0   1   1   1  0  0
296  0  0   0   0   0  1  0
297  1  0   0   0   0  0  0
298  0 75   0   0   0  0  0
299  0  0   1   1   1  0  0
300  0  0   0   0   0  1  0
[RF]
1      141.677 1 2 0 -38318.8 0
2      141.677 1 2 0 -255.458 0
3      141.677 1 2 0 -252.904 0
4      141.677 1 2 0 -250.349 0
5      141.677 1 2 0 -247.795 0
6      141.677 1 2 0 -245.24 0
7      141.677 1 2 0 -242.685 0
8      141.677 1 2 0 -240.131 0
9      141.677 1 2 0 -237.576 0
10      141.677 1 2 0 -235.022 0
11      141.677 1 2 0 -232.467 0
12      141.677 1 2 0 -229.913 0
13      141.677 1 2 0 -227.358 0
14      141.677 1 2 0 -224.803 0
15      141.677 1 2 0 -222.249 0
16      141.677 1 2 0 -219.694 0
17      141.677 1 2 0 -217.14 0
18      141.677 1 2 0 -214.585 0
19      141.677 1 2 0 -212.03 0
20      141.677 1 2 0 -209.476 0
21      141.677 1 2 0 -206.921 0
22      141.677 1 2 0 -204.367 0
23      141.677 1 2 0 -201.812 0
24      141.677 1 2 0 -199.258 0
25      141.677 1 2 0 -196.703 0
26      141.677 1 2 0 -194.148 0
27      141.677 1 2 0 -191.594 0
28      141.677 1 2 0 -189.039 0
29      141.677 1 2 0 -186.485 0
30      141.677 1 2 0 -183.93 0
31      141.677 1 2 0 -181.375 0
32      141.677 1 2 0 -178.821 0
33      141.677 1 2 0 -176.266 0
34      141.677 1 2 0 -173.712 0
35      141.677 1 2 0 -171.157 0
36      141.677 1 2 0 -168.603 0
37      141.677 1 2 0 -166.048 0
38      141.677 1 2 0 -163.493 0
39      141.677 1 2 0 -160.939 0
40      141.677 1 2 0 -158.384 0
41      141.677 1 2 0 -155.83 0
42      141.677 1 2 0 -153.275 0
43      141.677 1 2 0 -150.72 0
44      141.677 1 2 0 -148.166 0
45      141.677 1 2 0 -145.611 0
46      141.677 1 2 0 -143.057 0
47      141.677 1 2 0 -140.502 0
48      141.677 1 2 0 -137.948 0
49      141.677 1 2 0 -135.393 0
50      141.677 1 2 0 -132.838 0
51      141.677 1 2 0 -130.284 0
52      141.677 1 2 0 -127.729 0
53      141.677 1 2 0 -125.175 0
54      141.677 1 2 0 -122.62 0
55      141.677 1 2 0 -120.065 0
56      141.677 1 2 0 -117.511 0
57      141.677 1 2 0 -114.956 0
58      141.677 1 2 0 -112.402 0
59      141.677 1 2 0 -109.847 0
60      141.677 1 2 0 -107.293 0
61      141.677 1 2 0 -104.738 0
62      141.677 1 2 0 -102.183 0
63      141.677 1 2 0 -99.6288 0
64      141.677 1 2 0 -97.0742 0
65      141.677 1 2 0 -94.5196 0
66      141.677 1 2 0 -91.965 0
67      141.677 1 2 0 -89.4104 0
68      141.677 1 2 0 -86.8559 0
69      141.677 1 2 0 -84.3013 0
70      141.677 1 2 0 -81.7467 0
71      141.677 1 2 0 -79.1921 0
72      141.677 1 2 0 -76.6375 0
73      141.677 1 2 0 -74.0829 0
74      141.677 1 2 0 -71.5284 0
75      141.677 1 2 0 -68.9738 0
76      141.677 1 2 0 -66.4192 0
77      141.677 1 2 0 -63.8646 0
78      141.677 1 2 0 -61.31 0
79      141.677 1 2 0 -58.7554 0
80      141.677 1 2 0 -56.2008 0
81      141.677 1 2 0 -53.6463 0
82      141.677 1 2 0 -51.0917 0
83      141.677 1 2 0 -48.5371 0
84      141.677 1 2 0 -45.9825 0
85      141.677 1 2 0 -43.4279 0
86      141.677 1 2 0 -40.8733 0
87      141.677 1 2 0 -38.3188 0
88      141.677 1 2 0 -35.7642 0
89      141.677 1 2 0 -33.2096 0
90      141.677 1 2 0 -30.655 0
91      141.677 1 2 0 -28.1004 0
92      141.677 1 2 0 -25.5458 0
93      141.677 1 2 0 -22.9913 0
94      141.677 1 2 0 -20.4367 0
95      141.677 1 2 0 -17.8821 0
96      141.677 1 2 0 -15.3275 0
97      141.677 1 2 0 -12.7729 0
98      141.677 1 2 0 -10.2183 0
99      141.677 1 2 0 -7.66375 0
100      141.677 1 2 0 -5.10917 0
101      141.677 1 2 0 -2.55458 0
102      141.677 1 2 0 0 0
103      141.677 1 2 0 2.55458 0
104      141.677 1 2 0 5.10917 0
105      141.677 1 2 0 7.66375 0
106      141.677 1 2 0 10.2183 0
107      141.677 1 2 0 12.7729 0
108      141.677 1 2 0 15.3275 0
109      141.677 1 2 0 17.8821 0
110      141.677 1 2 0 20.4367 0
111      141.677 1 2 0 22.9913 0
112      141.677 1 2 0 25.5458 0
113      141.677 1 2 0 28.1004 0
114      141.677 1 2 0 30.655 0
115      141.677 1 2 0 33.2096 0
116      141.677 1 2 0 35.7642 0
117      141.677 1 2 0 38.3188 0
118      141.677 1 2 0 40.8733 0
119      141.677 1 2 0 43.4279 0
120      141.677 1 2 0 45.9825 0
121      141.677 1 2 0 48.5371 0
122      141.677 1 2 0 51.0917 0
123      141.677 1 2 0 53.6463 0
124      141.677 1 2 0 56.2008 0
125      141.677 1 2 0 58.7554 0
126      141.677 1 2 0 61.31 0
127      141.677 1 2 0 63.8646 0
128      141.677 1 2 0 66.4192 0
129      141.677 1 2 0 68.9738 0
130      141.677 1 2 0 71.5284 0
131      141.677 1 2 0 74.0829 0
132      141.677 1 2 0 76.6375 0
133      141.677 1 2 0 79.1921 0
134      141.677 1 2 0 81.7467 0
135      141.677 1 2 0 84.3013 0
136      141.677 1 2 0 86.8559 0
137      141.677 1 2 0 89.4104 0
138      141.677 1 2 0 91.965 0
139      141.677 1 2 0 94.5196 0
140      141.677 1 2 0 97.0742 0
141      141.677 1 2 0 99.6288 0
142      141.677 1 2 0 102.183 0
143      141.677 1 2 0 104.738 0
144      141.677 1 2 0 107.293 0
145      141.677 1 2 0 109.847 0
146      141.677 1 2 0 112.402 0
147      141.677 1 2 0 114.956 0
148      141.677 1 2 0 117.511 0
149      141.677 1 2 0 120.065 0
150      141.677 1 2 0 122.62 0
151      141.677 1 2 0 125.175 0
152      141.677 1 2 0 127.729 0
153      141.677 1 2 0 130.284 0
154      141.677 1 2 0 132.838 0
155      141.677 1 2 0 135.393 0
156      141.677 1 2 0 137.948 0
157      141.677 1 2 0 140.502 0
158      141.677 1 2 0 143.057 0
159      141.677 1 2 0 145.611 0
160      141.677 1 2 0 148.166 0
161      141.677 1 2 0 150.72 0
162      141.677 1 2 0 153.275 0
163      141.677 1 2 0 155.83 0
164      141.677 1 2 0 158.384 0
165      141.677 1 2 0 160.939 0
166      141.677 1 2 0 163.493 0
167      141.677 1 2 0 166.048 0
168      141.677 1 2 0 168.603 0
169      141.677 1 2 0 171.157 0
170      141.677 1 2 0 173.712 0
171      141.677 1 2 0 176.266 0
172      141.677 1 2 0 178.821 0
173      141.677 1 2 0 181.375 0
174      141.677 1 2 0 183.93 0
175      141.677 1 2 0 186.485 0
176      141.677 1 2 0 189.039 0
177      141.677 1 2 0 191.594 0
178      141.677 1 2 0 194.148 0
179      141.677 1 2 0 196.703 0
180      141.677 1 2 0 199.258 0
181      141.677 1 2 0 201.812 0
182      141.677 1 2 0 204.367 0
183      141.677 1 2 0 206.921 0
184      141.677 1 2 0 209.476 0
185      141.677 1 2 0 212.03 0
186      141.677 1 2 0 214.585 0
187      141.677 1 2 0 217.14 0
188      141.677 1 2 0 219.694 0
189      141.677 1 2 0 222.249 0
190      141.677 1 2 0 224.803 0
191      141.677 1 2 0 227.358 0
192      141.677 1 2 0 229.913 0
193      141.677 1 2 0 232.467 0
194      141.677 1 2 0 235.022 0
195      141.677 1 2 0 237.576 0
196      141.677 1 2 0 240.131 0
197      141.677 1 2 0 242.685 0
198      141.677 1 2 0 245.24 0
199      141.677 1 2 0 247.795 0
200      141.677 1 2 0 250.349 0
201      141.677 1 2 0 252.904 0
202      141.677 1 2 0 255.458 0

# Format of trapezoid gradients:
# id amplitude rise flat fall delay
# ..      Hz/m   us   us   us    us
[TRAP]
 1  2.72489e+06 1000 4500 1000   0

# Format of ADC events:
# id num dwell delay freq phase
# ..  ..    ns    us   Hz   rad
[ADC]
1 1 1000000 0 0 0

# Format of delays:
# id delay (us)
[DELAYS]
1 3500000

# Sequence Shapes
[SHAPES]

shape_id 1
num_samples 50000
2.8e-05
2.8e-05
4
2.81e-05
2.8e-05
2.8e-05
2
2.81e-05
2.8e-05
2.8e-05
0
2.81e-05
2.8e-05
2.8e-05
0
2.81e-05
2.8e-05
2.8e-05
0
2.81e-05
2.8e-05
2.81e-05
2.8e-05
2.81e-05
2.81e-05
0
2.8e-05
2.81e-05
2.8e-05
2.81e-05
2.81e-05
0
2.8e-05
2.81e-05
2.81e-05
2
2.8e-05
2.81e-05
2.81e-05
14
2.82e-05
2.81e-05
2.81e-05
1
2.82e-05
2.81e-05
2.81e-05
0
2.82e-05
2.81e-05
2.81e-05
0
2.82e-05
2.81e-05
2.82e-05
2.81e-05
2.82e-05
2.81e-05
2.82e-05
2.82e-05
0
2.81e-05
2.82e-05
2.81e-05
2.82e-05
2.82e-05
0
2.81e-05
2.82e-05
2.82e-05
2
2.81e-05
2.82e-05
2.82e-05
12
2.83e-05
2.82e-05
2.82e-05
2
2.83e-05
2.82e-05
2.82e-05
0
2.83e-05
2.82e-05
2.82e-05
0
2.83e-05
2.82e-05
2.83e-05
2.82e-05
2.83e-05
2.82e-05
2.83e-05
2.82e-05
2.83e-05
2.83e-05
0
2.82e-05
2.83e-05
2.83e-05
0
2.82e-05
2.83e-05
2.83e-05
1
2.82e-05
2.83e-05
2.83e-05
15
2.84e-05
2.83e-05
2.83e-05
1
2.84e-05
2.83e-05
2.83e-05
0
2.84e-05
2.83e-05
2.83e-05
0
2.84e-05
2.83e-05
2.84e-05
2.83e-05
2.84e-05
2.83e-05
2.84e-05
2.83e-05
2.84e-05
2.84e-05
0
2.83e-05
2.84e-05
2.84e-05
0
2.83e-05
2.84e-05
2.84e-05
2
2.83e-05
2.84e-05
2.84e-05
12
2.85e-05
2.84e-05
2.84e-05
1
2.85e-05
2.84e-05
2.84e-05
0
2.85e-05
2.84e-05
2.84e-05
0
2.85e-05
2.84e-05
2.85e-05
2.84e-05
2.84e-05
0
2.85e-05
2.85e-05
0
2.84e-05
2.85e-05
2.84e-05
2.85e-05
2.85e-05
0
2.84e-05
2.85e-05
2.85e-05
0
2.84e-05
2.85e-05
2.85e-05
2
2.84e-05
2.85e-05
2.85e-05
10
2.86e-05
2.85e-05
2.85e-05
2
2.86e-05
2.85e-05
2.85e-05
0
2.86e-05
2.85e-05
2.85e-05
0
2.86e-05
2.85e-05
2.86e-05
2.85e-05
2.86e-05
2.85e-05
2.86e-05
2.85e-05
2.86e-05
2.85e-05
2.86e-05
2.86e-05
0
2.85e-05
2.86e-05
2.86e-05
0
2.85e-05
2.86e-05
2.86e-05
2
2.85e-05
2.86e-05
2.86e-05
10
2.87e-05
2.86e-05
2.86e-05
2
2.87e-05
2.86e-05
2.86e-05
0
2.87e-05
2.86e-05
2.86e-05
0
2.87e-05
2.86e-05
2.86e-05
0
2.87e-05
2.86e-05
2.87e-05
2.86e-05
2.87e-05
2.87e-05
0
2.86e-05
2.87e-05
2.86e-05
2.87e-05
2.87e-05
1
2.86e-05
2.87e-05
2.87e-05
1
2.86e-05
2.87e-05
2.87e-05
12
2.88e-05
2.87e-05
2.87e-05
1
2.88e-05
2.87e-05
2.87e-05
1
2.88e-05
2.87e-05
2.88e-05
2.87e-05
2.87e-05
0
2.88e-05
2.87e-05
2.88e-05
2.87e-05
2.88e-05
2.88e-05
0
2.87e-05
2.88e-05
2.87e-05
2.88e-05
2.88e-05
0
2.87e-05
2.88e-05
2.88e-05
2
2.87e-05
2.88e-05
2.88e-05
12
2.89e-05
2.88e-05
2.88e-05
2
2.89e-05
2.88e-05
2.88e-05
0
2.89e-05
2.88e-05
2.89e-05
2.88e-05
2.88e-05
0
2.89e-05
2.88e-05
2.89e-05
2.88e-05
2.89e-05
2.89e-05
0
2.88e-05
2.89e-05
2.88e-05
2.89e-05
2.89e-05
1
2.88e-05
2.89e-05
2.89e-05
1
2.88e-05
2.89e-05
2.89e-05
11
2.9e-05
2.89e-05
2.89e-05
2
2.9e-05
2.89e-05
2.89e-05
0
2.9e-05
2.89e-05
2.89e-05
0
2.9e-05
2.89e-05
2.9e-05
2.89e-05
2.9e-05
2.89e-05
2.9e-05
2.89e-05
2.9e-05
2.89e-05
2.9e-05
2.9e-05
0
2.89e-05
2.9e-05
2.9e-05
1
2.89e-05
2.9e-05
2.9e-05
3
2.89e-05
2.9e-05
2.9e-05
5
2.91e-05
2.9e-05
2.9e-05
3
2.91e-05
2.9e-05
2.9e-05
1
2.91e-05
2.9e-05
2.9e-05
0
2.91e-05
2.9e-05
2.91e-05
2.9e-05
2.91e-05
2.9e-05
2.91e-05
2.9e-05
2.91e-05
2.9e-05
2.91e-05
2.91e-05
0
2.9e-05
2.91e-05
2.91e-05
0
2.9e-05
2.91e-05
2.91e-05
2
2.9e-05
2.91e-05
2.91e-05
10
2.92e-05
2.91e-05
2.91e-05
2
2.92e-05
2.91e-05
2.91e-05
0
2.92e-05
2.91e-05
2.91e-05
0
2.92e-05
2.91e-05
2.92e-05
2.91e-05
2.91e-05
0
2.92e-05
2.92e-05
0
2.91e-05
2.92e-05
2.91e-05
2.92e-05
2.92e-05
0
2.91e-05
2.92e-05
2.92e-05
0
2.91e-05
2.92e-05
2.92e-05
2
2.91e-05
2.92e-05
2.92e-05
9
2.93e-05
2.92e-05
2.92e-05
2
2.93e-05
2.92e-05
2.92e-05
1
2.93e-05
2.92e-05
2.93e-05
2.92e-05
2.92e-05
0
2.93e-05
2.92e-05
2.93e-05
2.92e-05
2.93e-05
2.93e-05
0
2.92e-05
2.93e-05
2.92e-05
2.93e-05
2.93e-05
0
2.92e-05
2.93e-05
2.93e-05
2
2.92e-05
2.93e-05
2.93e-05
12
2.94e-05
2.93e-05
2.93e-05
2
2.94e-05
2.93e-05
2.93e-05
0
2.94e-05
2.93e-05
2.93e-05
0
2.94e-05
2.93e-05
2.94e-05
2.93e-05
2.94e-05
2.93e-05
2.94e-05
2.94e-05
0
2.93e-05
2.94e-05
2.93e-05
2.94e-05
2.94e-05
1
2.93e-05
2.94e-05
2.94e-05
2
2.93e-05
2.94e-05
2.94e-05
9
2.95e-05
2.94e-05
2.94e-05
2
2.95e-05
2.94e-05
2.94e-05
0
2.95e-05
2.94e-05
2.94e-05
0
2.95e-05
2.94e-05
2.95e-05
2.94e-05
2.94e-05
0
2.95e-05
2.95e-05
0
2.94e-05
2.95e-05
2.94e-05
2.95e-05
2.95e-05
0
2.94e-05
2.95e-05
2.95e-05
0
2.94e-05
2.95e-05
2.95e-05
2
2.94e-05
2.95e-05
2.95e-05
9
2.96e-05
2.95e-05
2.95e-05
2
2.96e-05
2.95e-05
2.95e-05
0
2.96e-05
2.95e-05
2.95e-05
0
2.96e-05
2.95e-05
2.95e-05
0
2.96e-05
2.95e-05
2.96e-05
2.95e-05
2.96e-05
2.96e-05
0
2.95e-05
2.96e-05
2.95e-05
2.96e-05
2.96e-05
1
2.95e-05
2.96e-05
2.96e-05
1
2.95e-05
2.96e-05
2.96e-05
11
2.97e-05
2.96e-05
2.96e-05
2
2.97e-05
2.96e-05
2.96e-05
0
2.97e-05
2.96e-05
2.96e-05
0
2.97e-05
2.96e-05
2.97e-05
2.96e-05
2.97e-05
2.96e-05
2.97e-05
2.96e-05
2.97e-05
2.97e-05
0
2.96e-05
2.97e-05
2.97e-05
0
2.96e-05
2.97e-05
2.97e-05
1
2.96e-05
2.97e-05
2.97e-05
13
2.98e-05
2.97e-05
2.97e-05
2
2.98e-05
2.97e-05
2.97e-05
0
2.98e-05
2.97e-05
2.98e-05
2.97e-05
2.98e-05
2.97e-05
2.98e-05
2.97e-05
2.98e-05
2.97e-05
2.98e-05
2.97e-05
2.98e-05
2.98e-05
0
2.97e-05
2.98e-05
2.98e-05
1
2.97e-05
2.98e-05
2.98e-05
15
2.99e-05
2.98e-05
2.98e-05
1
2.99e-05
2.98e-05
2.98e-05
0
2.99e-05
2.98e-05
2.98e-05
0
2.99e-05
2.98e-05
2.99e-05
2.98e-05
2.99e-05
2.98e-05
2.99e-05
2.99e-05
0
2.98e-05
2.99e-05
2.99e-05
0
2.98e-05
2.99e-05
2.99e-05
1
2.98e-05
2.99e-05
2.99e-05
4
2.98e-05
2.99e-05
2.99e-05
1
3e-05
2.99e-05
2.99e-05
4
3e-05
2.99e-05
2.99e-05
1
3e-05
2.99e-05
2.99e-05
0
3e-05
2.99e-05
2.99e-05
0
3e-05
2.99e-05
3e-05
2.99e-05
3e-05
2.99e-05
3e-05
3e-05
0
2.99e-05
3e-05
3e-05
0
2.99e-05
3e-05
3e-05
1
2.99e-05
3e-05
3e-05
15
3.01e-05
3e-05
3e-05
1
3.01e-05
3e-05
3e-05
0
3.01e-05
3e-05
3.01e-05
3e-05
3.01e-05
3e-05
3.01e-05
3e-05
3.01e-05
3e-05
3.01e-05
3.01e-05
0
3e-05
3.01e-05
3.01e-05
0
3e-05
3.01e-05
3.01e-05
2
3e-05
3.01e-05
3.01e-05
10
3.02e-05
3.01e-05
3.01e-05
2
3.02e-05
3.01e-05
3.01e-05
0
3.02e-05
3.01e-05
3.01e-05
0
3.02e-05
3.01e-05
3.02e-05
3.01e-05
3.02e-05
3.01e-05
3.02e-05
3.01e-05
3.02e-05
3.02e-05
0
3.01e-05
3.02e-05
3.02e-05
0
3.01e-05
3.02e-05
3.02e-05
1
3.01e-05
3.02e-05
3.02e-05
12
3.03e-05
3.02e-05
3.02e-05
2
3.03e-05
3.02e-05
3.02e-05
0
3.03e-05
3.02e-05
3.02e-05
0
3.03e-05
3.02e-05
3.03e-05
3.02e-05
3.03e-05
3.02e-05
3.03e-05
3.03e-05
0
3.02e-05
3.03e-05
3.02e-05
3.03e-05
3.03e-05
1
3.02e-05
3.03e-05
3.03e-05
2
3.02e-05
3.03e-05
3.03e-05
8
3.04e-05
3.03e-05
3.03e-05
2
3.04e-05
3.03e-05
3.03e-05
0
3.04e-05
3.03e-05
3.03e-05
0
3.04e-05
3.03e-05
3.03e-05
0
3.04e-05
3.03e-05
3.04e-05
3.03e-05
3.04e-05
3.04e-05
0
3.03e-05
3.04e-05
3.03e-05
3.04e-05
3.04e-05
1
3.03e-05
3.04e-05
3.04e-05
2
3.03e-05
3.04e-05
3.04e-05
9
3.05e-05
3.04e-05
3.04e-05
2
3.05e-05
3.04e-05
3.04e-05
0
3.05e-05
3.04e-05
3.04e-05
0
3.05e-05
3.04e-05
3.05e-05
3.04e-05
3.05e-05
3.04e-05
3.05e-05
3.04e-05
3.05e-05
3.05e-05
0
3.04e-05
3.05e-05
3.05e-05
0
3.04e-05
3.05e-05
3.05e-05
1
3.04e-05
3.05e-05
3.05e-05
13
3.06e-05
3.05e-05
3.05e-05
1
3.06e-05
3.05e-05
3.05e-05
1
3.06e-05
3.05e-05
3.06e-05
3.05e-05
3.06e-05
3.05e-05
3.06e-05
3.05e-05
3.06e-05
3.05e-05
3.06e-05
3.06e-05
0
3.05e-05
3.06e-05
3.06e-05
0
3.05e-05
3.06e-05
3.06e-05
2
3.05e-05
3.06e-05
3.06e-05
10
3.07e-05
3.06e-05
3.06e-05
1
3.07e-05
3.06e-05
3.06e-05
1
3.07e-05
3.06e-05
3.07e-05
3.06e-05
3.06e-05
0
3.07e-05
3.06e-05
3.07e-05
3.06e-05
3.07e-05
3.07e-05
0
3.06e-05
3.07e-05
3.07e-05
0
3.06e-05
3.07e-05
3.07e-05
0
3.06e-05
3.07e-05
3.07e-05
3
3.06e-05
3.07e-05
3.07e-05
6
3.08e-05
3.07e-05
3.07e-05
3
3.08e-05
3.07e-05
3.07e-05
0
3.08e-05
3.07e-05
3.07e-05
0
3.08e-05
3.07e-05
3.08e-05
3.07e-05
3.08e-05
3.07e-05
3.08e-05
3.07e-05
3.08e-05
3.07e-05
3.08e-05
3.08e-05
0
3.07e-05
3.08e-05
3.08e-05
1
3.07e-05
3.08e-05
3.08e-05
4
3.07e-05
3.08e-05
3.08e-05
2
3.09e-05
3.08e-05
3.08e-05
4
3.09e-05
3.08e-05
3.08e-05
0
3.09e-05
3.08e-05
3.08e-05
0
3.09e-05
3.08e-05
3.08e-05
0
3.09e-05
3.08e-05
3.09e-05
3.08e-05
3.09e-05
3.08e-05
3.09e-05
3.09e-05
0
3.08e-05
3.09e-05
3.09e-05
0
3.08e-05
3.09e-05
3.09e-05
1
3.08e-05
3.09e-05
3.09e-05
14
3.1e-05
3.09e-05
3.09e-05
1
3.1e-05
3.09e-05
3.09e-05
0
3.1e-05
3.09e-05
3.1e-05
3.09e-05
3.1e-05
3.09e-05
3.1e-05
3.09e-05
3.1e-05
3.09e-05
3.1e-05
3.1e-05
0
3.09e-05
3.1e-05
3.1e-05
0
3.09e-05
3.1e-05
3.1e-05
2
3.09e-05
3.1e-05
3.1e-05
9
3.11e-05
3.1e-05
3.1e-05
2
3.11e-05
3.1e-05
3.1e-05
0
3.11e-05
3.1e-05
3.1e-05
0
3.11e-05
3.1e-05
3.11e-05
3.1e-05
3.11e-05
3.1e-05
3.11e-05
3.1e-05
3.11e-05
3.1e-05
3.11e-05
3.11e-05
0
3.1e-05
3.11e-05
3.11e-05
1
3.1e-05
3.11e-05
3.11e-05
14
3.12e-05
3.11e-05
3.11e-05
1
3.12e-05
3.11e-05
3.11e-05
0
3.12e-05
3.11e-05
3.11e-05
0
3.12e-05
3.11e-05
3.12e-05
3.11e-05
3.12e-05
3.11e-05
3.12e-05
3.12e-05
0
3.11e-05
3.12e-05
3.12e-05
0
3.11e-05
3.12e-05
3.12e-05
0
3.11e-05
3.12e-05
3.12e-05
15
3.13e-05
3.12e-05
3.12e-05
1
3.13e-05
3.12e-05
3.12e-05
0
3.13e-05
3.12e-05
3.12e-05
0
3.13e-05
3.12e-05
3.13e-05
3.12e-05
3.13e-05
3.13e-05
0
3.12e-05
3.13e-05
3.12e-05
3.13e-05
3.13e-05
0
3.12e-05
3.13e-05
3.13e-05
2
3.12e-05
3.13e-05
3.13e-05
11
3.14e-05
3.13e-05
3.13e-05
2
3.14e-05
3.13e-05
3.13e-05
0
3.14e-05
3.13e-05
3.14e-05
3.13e-05
3.13e-05
0
3.14e-05
3.13e-05
3.14e-05
3.14e-05
0
3.13e-05
3.14e-05
3.13e-05
3.14e-05
3.14e-05
0
3.13e-05
3.14e-05
3.14e-05
1
3.13e-05
3.14e-05
3.14e-05
14
3.15e-05
3.14e-05
3.14e-05
1
3.15e-05
3.14e-05
3.14e-05
0
3.15e-05
3.14e-05
3.15e-05
3.14e-05
3.15e-05
3.14e-05
3.15e-05
3.14e-05
3.15e-05
3.14e-05
3.15e-05
3.15e-05
0
3.14e-05
3.15e-05
3.15e-05
0
3.14e-05
3.15e-05
3.15e-05
2
3.14e-05
3.15e-05
3.15e-05
9
3.16e-05
3.15e-05
3.15e-05
2
3.16e-05
3.15e-05
3.15e-05
0
3.16e-05
3.15e-05
3.15e-05
0
3.16e-05
3.15e-05
3.16e-05
3.15e-05
3.16e-05
3.15e-05
3.16e-05
3.15e-05
3.16e-05
3.16e-05
0
3.15e-05
3.16e-05
3.16e-05
0
3.15e-05
3.16e-05
3.16e-05
2
3.15e-05
3.16e-05
3.16e-05
9
3.17e-05
3.16e-05
3.16e-05
2
3.17e-05
3.16e-05
3.16e-05
0
3.17e-05
3.16e-05
3.16e-05
0
3.17e-05
3.16e-05
3.17e-05
3.16e-05
3.17e-05
3.16e-05
3.17e-05
3.16e-05
3.17e-05
3.17e-05
0
3.16e-05
3.17e-05
3.17e-05
0
3.16e-05
3.17e-05
3.17e-05
1
3.16e-05
3.17e-05
3.17e-05
11
3.18e-05
3.17e-05
3.17e-05
2
3.18e-05
3.17e-05
3.17e-05
0
3.18e-05
3.17e-05
3.18e-05
3.17e-05
3.17e-05
0
3.18e-05
3.17e-05
3.18e-05
3.17e-05
3.18e-05
3.18e-05
0
3.17e-05
3.18e-05
3.18e-05
0
3.17e-05
3.18e-05
3.18e-05
1
3.17e-05
3.18e-05
3.18e-05
14
3.19e-05
3.18e-05
3.18e-05
1
3.19e-05
3.18e-05
3.18e-05
0
3.19e-05
3.18e-05
3.19e-05
3.18e-05
3.19e-05
3.18e-05
3.19e-05
3.18e-05
3.19e-05
3.18e-05
3.19e-05
3.19e-05
0
3.18e-05
3.19e-05
3.19e-05
0
3.18e-05
3.19e-05
3.19e-05
2
3.18e-05
3.19e-05
3.19e-05
8
3.2e-05
3.19e-05
3.19e-05
2
3.2e-05
3.19e-05
3.19e-05
0
3.2e-05
3.19e-05
3.19e-05
0
3.2e-05
3.19e-05
3.2e-05
3.19e-05
3.2e-05
3.19e-05
3.2e-05
3.19e-05
3.2e-05
3.19e-05
3.2e-05
3.2e-05
0
3.19e-05
3.2e-05
3.2e-05
2
3.19e-05
3.2e-05
3.2e-05
12
3.21e-05
3.2e-05
3.2e-05
1
3.21e-05
3.2e-05
3.2e-05
0
3.21e-05
3.2e-05
3.2e-05
0
3.21e-05
3.2e-05
3.21e-05
3.2e-05
3.21e-05
3.2e-05
3.21e-05
3.2e-05
3.21e-05
3.21e-05
0
3.2e-05
3.21e-05
3.21e-05
1
3.2e-05
3.21e-05
3.21e-05
4
3.2e-05
3.21e-05
3.21e-05
2
3.22e-05
3.21e-05
3.21e-05
4
3.22e-05
3.21e-05
3.21e-05
0
3.22e-05
3.21e-05
3.21e-05
0
3.22e-05
3.21e-05
3.22e-05
3.21e-05
3.21e-05
0
3.22e-05
3.21e-05
3.22e-05
3.22e-05
0
3.21e-05
3.22e-05
3.22e-05
0
3.21e-05
3.22e-05
3.22e-05
0
3.21e-05
3.22e-05
3.22e-05
3
3.21e-05
3.22e-05
3.22e-05
5
3.23e-05
3.22e-05
3.22e-05
3
3.23e-05
3.22e-05
3.22e-05
0
3.23e-05
3.22e-05
3.22e-05
0
3.23e-05
3.22e-05
3.22e-05
0
3.23e-05
3.22e-05
3.23e-05
3.22e-05
3.23e-05
3.23e-05
0
3.22e-05
3.23e-05
3.23e-05
0
3.22e-05
3.23e-05
3.23e-05
0
3.22e-05
3.23e-05
3.23e-05
4
3.22e-05
3.23e-05
3.23e-05
3
3.24e-05
3.23e-05
3.23e-05
3
3.24e-05
3.23e-05
3.23e-05
1
3.24e-05
3.23e-05
3.23e-05
0
3.24e-05
3.23e-05
3.24e-05
3.23e-05
3.24e-05
3.23e-05
3.24e-05
3.23e-05
3.24e-05
3.24e-05
0
3.23e-05
3.24e-05
3.24e-05
0
3.23e-05
3.24e-05
3.24e-05
1
3.23e-05
3.24e-05
3.24e-05
12
3.25e-05
3.24e-05
3.24e-05
1
3.25e-05
3.24e-05
3.24e-05
0
3.25e-05
3.24e-05
3.24e-05
0
3.25e-05
3.24e-05
3.25e-05
3.24e-05
3.25e-05
3.24e-05
3.25e-05
3.25e-05
0
3.24e-05
3.25e-05
3.25e-05
0
3.24e-05
3.25e-05
3.25e-05
1
3.24e-05
3.25e-05
3.25e-05
13
3.26e-05
3.25e-05
3.25e-05
1
3.26e-05
3.25e-05
3.25e-05
0
3.26e-05
3.25e-05
3.26e-05
3.25e-05
3.25e-05
0
3.26e-05
3.25e-05
3.26e-05
3.26e-05
0
3.25e-05
3.26e-05
3.25e-05
3.26e-05
3.26e-05
1
3.25e-05
3.26e-05
3.26e-05
2
3.25e-05
3.26e-05
3.26e-05
8
3.27e-05
3.26e-05
3.26e-05
2
3.27e-05
3.26e-05
3.26e-05
0
3.27e-05
3.26e-05
3.26e-05
0
3.27e-05
3.26e-05
3.27e-05
3.26e-05
3.27e-05
3.26e-05
3.27e-05
3.26e-05
3.27e-05
3.27e-05
0
3.26e-05
3.27e-05
3.27e-05
0
3.26e-05
3.27e-05
3.27e-05
2
3.26e-05
3.27e-05
3.27e-05
9
3.28e-05
3.27e-05
3.27e-05
2
3.28e-05
3.27e-05
3.27e-05
0
3.28e-05
3.27e-05
3.28e-05
3.27e-05
3.27e-05
0
3.28e-05
3.27e-05
3.28e-05
3.27e-05
3.28e-05
3.28e-05
0
3.27e-05
3.28e-05
3.28e-05
0
3.27e-05
3.28e-05
3.28e-05
1
3.27e-05
3.28e-05
3.28e-05
13
3.29e-05
3.28e-05
3.28e-05
1
3.29e-05
3.28e-05
3.28e-05
0
3.29e-05
3.28e-05
3.28e-05
0
3.29e-05
3.28e-05
3.29e-05
3.28e-05
3.29e-05
3.28e-05
3.29e-05
3.29e-05
0
3.28e-05
3.29e-05
3.29e-05
0
3.28e-05
3.29e-05
3.29e-05
2
3.28e-05
3.29e-05
3.29e-05
10
3.3e-05
3.29e-05
3.29e-05
1
3.3e-05
3.29e-05
3.29e-05
0
