# Pulseq sequence file
# Created by MATLAB mr toolbox

# Created for Pulseq-CEST
# https://pulseq-cest.github.io/
# Created by: Moritz Zaiss
# Created at: 10-Aug-2022 09:32:28

[VERSION]
major 1
minor 3
revision 1

[DEFINITIONS]
B0 3 
B1cwpe 1.99999975 
DCsat 1 
M0_offset -1560 
Trec 3.5 
Trec_M0 3.5 
Tsat 2 
n_pulses 1 
num_meas 122 
offsets_ppm -1560 -15 -14.75 -14.5 -14.25 -14 -13.75 -13.5 -13.25 -13 -12.75 -12.5 -12.25 -12 -11.75 -11.5 -11.25 -11 -10.75 -10.5 -10.25 -10 -9.75 -9.5 -9.25 -9 -8.75 -8.5 -8.25 -8 -7.75 -7.5 -7.25 -7 -6.75 -6.5 -6.25 -6 -5.75 -5.5 -5.25 -5 -4.75 -4.5 -4.25 -4 -3.75 -3.5 -3.25 -3 -2.75 -2.5 -2.25 -2 -1.75 -1.5 -1.25 -1 -0.75 -0.5 -0.25 0 0.25 0.5 0.75 1 1.25 1.5 1.75 2 2.25 2.5 2.75 3 3.25 3.5 3.75 4 4.25 4.5 4.75 5 5.25 5.5 5.75 6 6.25 6.5 6.75 7 7.25 7.5 7.75 8 8.25 8.5 8.75 9 9.25 9.5 9.75 10 10.25 10.5 10.75 11 11.25 11.5 11.75 12 12.25 12.5 12.75 13 13.25 13.5 13.75 14 14.25 14.5 14.75 15 
seq_id_string APTw_3T_000_2uT_1block_2s_braintumor 
td 0 
tp 2 

# Format of blocks:
#  #  D RF  GX  GY  GZ ADC EXT
[BLOCKS]
  1  1  0   0   0   0  0  0
  2  0  1   0   0   0  0  0
  3  0  0   1   1   1  0  0
  4  0  0   0   0   0  1  0
  5  1  0   0   0   0  0  0
  6  0  2   0   0   0  0  0
  7  0  0   1   1   1  0  0
  8  0  0   0   0   0  1  0
  9  1  0   0   0   0  0  0
 10  0  3   0   0   0  0  0
 11  0  0   1   1   1  0  0
 12  0  0   0   0   0  1  0
 13  1  0   0   0   0  0  0
 14  0  4   0   0   0  0  0
 15  0  0   1   1   1  0  0
 16  0  0   0   0   0  1  0
 17  1  0   0   0   0  0  0
 18  0  5   0   0   0  0  0
 19  0  0   1   1   1  0  0
 20  0  0   0   0   0  1  0
 21  1  0   0   0   0  0  0
 22  0  6   0   0   0  0  0
 23  0  0   1   1   1  0  0
 24  0  0   0   0   0  1  0
 25  1  0   0   0   0  0  0
 26  0  7   0   0   0  0  0
 27  0  0   1   1   1  0  0
 28  0  0   0   0   0  1  0
 29  1  0   0   0   0  0  0
 30  0  8   0   0   0  0  0
 31  0  0   1   1   1  0  0
 32  0  0   0   0   0  1  0
 33  1  0   0   0   0  0  0
 34  0  9   0   0   0  0  0
 35  0  0   1   1   1  0  0
 36  0  0   0   0   0  1  0
 37  1  0   0   0   0  0  0
 38  0 10   0   0   0  0  0
 39  0  0   1   1   1  0  0
 40  0  0   0   0   0  1  0
 41  1  0   0   0   0  0  0
 42  0 11   0   0   0  0  0
 43  0  0   1   1   1  0  0
 44  0  0   0   0   0  1  0
 45  1  0   0   0   0  0  0
 46  0 12   0   0   0  0  0
 47  0  0   1   1   1  0  0
 48  0  0   0   0   0  1  0
 49  1  0   0   0   0  0  0
 50  0 13   0   0   0  0  0
 51  0  0   1   1   1  0  0
 52  0  0   0   0   0  1  0
 53  1  0   0   0   0  0  0
 54  0 14   0   0   0  0  0
 55  0  0   1   1   1  0  0
 56  0  0   0   0   0  1  0
 57  1  0   0   0   0  0  0
 58  0 15   0   0   0  0  0
 59  0  0   1   1   1  0  0
 60  0  0   0   0   0  1  0
 61  1  0   0   0   0  0  0
 62  0 16   0   0   0  0  0
 63  0  0   1   1   1  0  0
 64  0  0   0   0   0  1  0
 65  1  0   0   0   0  0  0
 66  0 17   0   0   0  0  0
 67  0  0   1   1   1  0  0
 68  0  0   0   0   0  1  0
 69  1  0   0   0   0  0  0
 70  0 18   0   0   0  0  0
 71  0  0   1   1   1  0  0
 72  0  0   0   0   0  1  0
 73  1  0   0   0   0  0  0
 74  0 19   0   0   0  0  0
 75  0  0   1   1   1  0  0
 76  0  0   0   0   0  1  0
 77  1  0   0   0   0  0  0
 78  0 20   0   0   0  0  0
 79  0  0   1   1   1  0  0
 80  0  0   0   0   0  1  0
 81  1  0   0   0   0  0  0
 82  0 21   0   0   0  0  0
 83  0  0   1   1   1  0  0
 84  0  0   0   0   0  1  0
 85  1  0   0   0   0  0  0
 86  0 22   0   0   0  0  0
 87  0  0   1   1   1  0  0
 88  0  0   0   0   0  1  0
 89  1  0   0   0   0  0  0
 90  0 23   0   0   0  0  0
 91  0  0   1   1   1  0  0
 92  0  0   0   0   0  1  0
 93  1  0   0   0   0  0  0
 94  0 24   0   0   0  0  0
 95  0  0   1   1   1  0  0
 96  0  0   0   0   0  1  0
 97  1  0   0   0   0  0  0
 98  0 25   0   0   0  0  0
 99  0  0   1   1   1  0  0
100  0  0   0   0   0  1  0
101  1  0   0   0   0  0  0
102  0 26   0   0   0  0  0
103  0  0   1   1   1  0  0
104  0  0   0   0   0  1  0
105  1  0   0   0   0  0  0
106  0 27   0   0   0  0  0
107  0  0   1   1   1  0  0
108  0  0   0   0   0  1  0
109  1  0   0   0   0  0  0
110  0 28   0   0   0  0  0
111  0  0   1   1   1  0  0
112  0  0   0   0   0  1  0
113  1  0   0   0   0  0  0
114  0 29   0   0   0  0  0
115  0  0   1   1   1  0  0
116  0  0   0   0   0  1  0
117  1  0   0   0   0  0  0
118  0 30   0   0   0  0  0
119  0  0   1   1   1  0  0
120  0  0   0   0   0  1  0
121  1  0   0   0   0  0  0
122  0 31   0   0   0  0  0
123  0  0   1   1   1  0  0
124  0  0   0   0   0  1  0
125  1  0   0   0   0  0  0
126  0 32   0   0   0  0  0
127  0  0   1   1   1  0  0
128  0  0   0   0   0  1  0
129  1  0   0   0   0  0  0
130  0 33   0   0   0  0  0
131  0  0   1   1   1  0  0
132  0  0   0   0   0  1  0
133  1  0   0   0   0  0  0
134  0 34   0   0   0  0  0
135  0  0   1   1   1  0  0
136  0  0   0   0   0  1  0
137  1  0   0   0   0  0  0
138  0 35   0   0   0  0  0
139  0  0   1   1   1  0  0
140  0  0   0   0   0  1  0
141  1  0   0   0   0  0  0
142  0 36   0   0   0  0  0
143  0  0   1   1   1  0  0
144  0  0   0   0   0  1  0
145  1  0   0   0   0  0  0
146  0 37   0   0   0  0  0
147  0  0   1   1   1  0  0
148  0  0   0   0   0  1  0
149  1  0   0   0   0  0  0
150  0 38   0   0   0  0  0
151  0  0   1   1   1  0  0
152  0  0   0   0   0  1  0
153  1  0   0   0   0  0  0
154  0 39   0   0   0  0  0
155  0  0   1   1   1  0  0
156  0  0   0   0   0  1  0
157  1  0   0   0   0  0  0
158  0 40   0   0   0  0  0
159  0  0   1   1   1  0  0
160  0  0   0   0   0  1  0
161  1  0   0   0   0  0  0
162  0 41   0   0   0  0  0
163  0  0   1   1   1  0  0
164  0  0   0   0   0  1  0
165  1  0   0   0   0  0  0
166  0 42   0   0   0  0  0
167  0  0   1   1   1  0  0
168  0  0   0   0   0  1  0
169  1  0   0   0   0  0  0
170  0 43   0   0   0  0  0
171  0  0   1   1   1  0  0
172  0  0   0   0   0  1  0
173  1  0   0   0   0  0  0
174  0 44   0   0   0  0  0
175  0  0   1   1   1  0  0
176  0  0   0   0   0  1  0
177  1  0   0   0   0  0  0
178  0 45   0   0   0  0  0
179  0  0   1   1   1  0  0
180  0  0   0   0   0  1  0
181  1  0   0   0   0  0  0
182  0 46   0   0   0  0  0
183  0  0   1   1   1  0  0
184  0  0   0   0   0  1  0
185  1  0   0   0   0  0  0
186  0 47   0   0   0  0  0
187  0  0   1   1   1  0  0
188  0  0   0   0   0  1  0
189  1  0   0   0   0  0  0
190  0 48   0   0   0  0  0
191  0  0   1   1   1  0  0
192  0  0   0   0   0  1  0
193  1  0   0   0   0  0  0
194  0 49   0   0   0  0  0
195  0  0   1   1   1  0  0
196  0  0   0   0   0  1  0
197  1  0   0   0   0  0  0
198  0 50   0   0   0  0  0
199  0  0   1   1   1  0  0
200  0  0   0   0   0  1  0
201  1  0   0   0   0  0  0
202  0 51   0   0   0  0  0
203  0  0   1   1   1  0  0
204  0  0   0   0   0  1  0
205  1  0   0   0   0  0  0
206  0 52   0   0   0  0  0
207  0  0   1   1   1  0  0
208  0  0   0   0   0  1  0
209  1  0   0   0   0  0  0
210  0 53   0   0   0  0  0
211  0  0   1   1   1  0  0
212  0  0   0   0   0  1  0
213  1  0   0   0   0  0  0
214  0 54   0   0   0  0  0
215  0  0   1   1   1  0  0
216  0  0   0   0   0  1  0
217  1  0   0   0   0  0  0
218  0 55   0   0   0  0  0
219  0  0   1   1   1  0  0
220  0  0   0   0   0  1  0
221  1  0   0   0   0  0  0
222  0 56   0   0   0  0  0
223  0  0   1   1   1  0  0
224  0  0   0   0   0  1  0
225  1  0   0   0   0  0  0
226  0 57   0   0   0  0  0
227  0  0   1   1   1  0  0
228  0  0   0   0   0  1  0
229  1  0   0   0   0  0  0
230  0 58   0   0   0  0  0
231  0  0   1   1   1  0  0
232  0  0   0   0   0  1  0
233  1  0   0   0   0  0  0
234  0 59   0   0   0  0  0
235  0  0   1   1   1  0  0
236  0  0   0   0   0  1  0
237  1  0   0   0   0  0  0
238  0 60   0   0   0  0  0
239  0  0   1   1   1  0  0
240  0  0   0   0   0  1  0
241  1  0   0   0   0  0  0
242  0 61   0   0   0  0  0
243  0  0   1   1   1  0  0
244  0  0   0   0   0  1  0
245  1  0   0   0   0  0  0
246  0 62   0   0   0  0  0
247  0  0   1   1   1  0  0
248  0  0   0   0   0  1  0
249  1  0   0   0   0  0  0
250  0 63   0   0   0  0  0
251  0  0   1   1   1  0  0
252  0  0   0   0   0  1  0
253  1  0   0   0   0  0  0
254  0 64   0   0   0  0  0
255  0  0   1   1   1  0  0
256  0  0   0   0   0  1  0
257  1  0   0   0   0  0  0
258  0 65   0   0   0  0  0
259  0  0   1   1   1  0  0
260  0  0   0   0   0  1  0
261  1  0   0   0   0  0  0
262  0 66   0   0   0  0  0
263  0  0   1   1   1  0  0
264  0  0   0   0   0  1  0
265  1  0   0   0   0  0  0
266  0 67   0   0   0  0  0
267  0  0   1   1   1  0  0
268  0  0   0   0   0  1  0
269  1  0   0   0   0  0  0
270  0 68   0   0   0  0  0
271  0  0   1   1   1  0  0
272  0  0   0   0   0  1  0
273  1  0   0   0   0  0  0
274  0 69   0   0   0  0  0
275  0  0   1   1   1  0  0
276  0  0   0   0   0  1  0
277  1  0   0   0   0  0  0
278  0 70   0   0   0  0  0
279  0  0   1   1   1  0  0
280  0  0   0   0   0  1  0
281  1  0   0   0   0  0  0
282  0 71   0   0   0  0  0
283  0  0   1   1   1  0  0
284  0  0   0   0   0  1  0
285  1  0   0   0   0  0  0
286  0 72   0   0   0  0  0
287  0  0   1   1   1  0  0
288  0  0   0   0   0  1  0
289  1  0   0   0   0  0  0
290  0 73   0   0   0  0  0
291  0  0   1   1   1  0  0
292  0  0   0   0   0  1  0
293  1  0   0   0   0  0  0
294  0 74   0   0   0  0  0
295  0  0   1   1   1  0  0
296  0  0   0   0   0  1  0
297  1  0   0   0   0  0  0
298  0 75   0   0   0  0  0
299  0  0   1   1   1  0  0
300  0  0   0   0   0  1  0
301  1  0   0   0   0  0  0
302  0 76   0   0   0  0  0
303  0  0   1   1   1  0  0
304  0  0   0   0   0  1  0
305  1  0   0   0   0  0  0
306  0 77   0   0   0  0  0
307  0  0   1   1   1  0  0
308  0  0   0   0   0  1  0
309  1  0   0   0   0  0  0
310  0 78   0   0   0  0  0
311  0  0   1   1   1  0  0
312  0  0   0   0   0  1  0
313  1  0   0   0   0  0  0
314  0 79   0   0   0  0  0
315  0  0   1   1   1  0  0
316  0  0   0   0   0  1  0
317  1  0   0   0   0  0  0
318  0 80   0   0   0  0  0
319  0  0   1   1   1  0  0
320  0  0   0   0   0  1  0
321  1  0   0   0   0  0  0
322  0 81   0   0   0  0  0
323  0  0   1   1   1  0  0
324  0  0   0   0   0  1  0
325  1  0   0   0   0  0  0
326  0 82   0   0   0  0  0
327  0  0   1   1   1  0  0
328  0  0   0   0   0  1  0
329  1  0   0   0   0  0  0
330  0 83   0   0   0  0  0
331  0  0   1   1   1  0  0
332  0  0   0   0   0  1  0
333  1  0   0   0   0  0  0
334  0 84   0   0   0  0  0
335  0  0   1   1   1  0  0
336  0  0   0   0   0  1  0
337  1  0   0   0   0  0  0
338  0 85   0   0   0  0  0
339  0  0   1   1   1  0  0
340  0  0   0   0   0  1  0
341  1  0   0   0   0  0  0
342  0 86   0   0   0  0  0
343  0  0   1   1   1  0  0
344  0  0   0   0   0  1  0
345  1  0   0   0   0  0  0
346  0 87   0   0   0  0  0
347  0  0   1   1   1  0  0
348  0  0   0   0   0  1  0
349  1  0   0   0   0  0  0
350  0 88   0   0   0  0  0
351  0  0   1   1   1  0  0
352  0  0   0   0   0  1  0
353  1  0   0   0   0  0  0
354  0 89   0   0   0  0  0
355  0  0   1   1   1  0  0
356  0  0   0   0   0  1  0
357  1  0   0   0   0  0  0
358  0 90   0   0   0  0  0
359  0  0   1   1   1  0  0
360  0  0   0   0   0  1  0
361  1  0   0   0   0  0  0
362  0 91   0   0   0  0  0
363  0  0   1   1   1  0  0
364  0  0   0   0   0  1  0
365  1  0   0   0   0  0  0
366  0 92   0   0   0  0  0
367  0  0   1   1   1  0  0
368  0  0   0   0   0  1  0
369  1  0   0   0   0  0  0
370  0 93   0   0   0  0  0
371  0  0   1   1   1  0  0
372  0  0   0   0   0  1  0
373  1  0   0   0   0  0  0
374  0 94   0   0   0  0  0
375  0  0   1   1   1  0  0
376  0  0   0   0   0  1  0
377  1  0   0   0   0  0  0
378  0 95   0   0   0  0  0
379  0  0   1   1   1  0  0
380  0  0   0   0   0  1  0
381  1  0   0   0   0  0  0
382  0 96   0   0   0  0  0
383  0  0   1   1   1  0  0
384  0  0   0   0   0  1  0
385  1  0   0   0   0  0  0
386  0 97   0   0   0  0  0
387  0  0   1   1   1  0  0
388  0  0   0   0   0  1  0
389  1  0   0   0   0  0  0
390  0 98   0   0   0  0  0
391  0  0   1   1   1  0  0
392  0  0   0   0   0  1  0
393  1  0   0   0   0  0  0
394  0 99   0   0   0  0  0
395  0  0   1   1   1  0  0
396  0  0   0   0   0  1  0
397  1  0   0   0   0  0  0
398  0 100   0   0   0  0  0
399  0  0   1   1   1  0  0
400  0  0   0   0   0  1  0
401  1  0   0   0   0  0  0
402  0 101   0   0   0  0  0
403  0  0   1   1   1  0  0
404  0  0   0   0   0  1  0
405  1  0   0   0   0  0  0
406  0 102   0   0   0  0  0
407  0  0   1   1   1  0  0
408  0  0   0   0   0  1  0
409  1  0   0   0   0  0  0
410  0 103   0   0   0  0  0
411  0  0   1   1   1  0  0
412  0  0   0   0   0  1  0
413  1  0   0   0   0  0  0
414  0 104   0   0   0  0  0
415  0  0   1   1   1  0  0
416  0  0   0   0   0  1  0
417  1  0   0   0   0  0  0
418  0 105   0   0   0  0  0
419  0  0   1   1   1  0  0
420  0  0   0   0   0  1  0
421  1  0   0   0   0  0  0
422  0 106   0   0   0  0  0
423  0  0   1   1   1  0  0
424  0  0   0   0   0  1  0
425  1  0   0   0   0  0  0
426  0 107   0   0   0  0  0
427  0  0   1   1   1  0  0
428  0  0   0   0   0  1  0
429  1  0   0   0   0  0  0
430  0 108   0   0   0  0  0
431  0  0   1   1   1  0  0
432  0  0   0   0   0  1  0
433  1  0   0   0   0  0  0
434  0 109   0   0   0  0  0
435  0  0   1   1   1  0  0
436  0  0   0   0   0  1  0
437  1  0   0   0   0  0  0
438  0 110   0   0   0  0  0
439  0  0   1   1   1  0  0
440  0  0   0   0   0  1  0
441  1  0   0   0   0  0  0
442  0 111   0   0   0  0  0
443  0  0   1   1   1  0  0
444  0  0   0   0   0  1  0
445  1  0   0   0   0  0  0
446  0 112   0   0   0  0  0
447  0  0   1   1   1  0  0
448  0  0   0   0   0  1  0
449  1  0   0   0   0  0  0
450  0 113   0   0   0  0  0
451  0  0   1   1   1  0  0
452  0  0   0   0   0  1  0
453  1  0   0   0   0  0  0
454  0 114   0   0   0  0  0
455  0  0   1   1   1  0  0
456  0  0   0   0   0  1  0
457  1  0   0   0   0  0  0
458  0 115   0   0   0  0  0
459  0  0   1   1   1  0  0
460  0  0   0   0   0  1  0
461  1  0   0   0   0  0  0
462  0 116   0   0   0  0  0
463  0  0   1   1   1  0  0
464  0  0   0   0   0  1  0
465  1  0   0   0   0  0  0
466  0 117   0   0   0  0  0
467  0  0   1   1   1  0  0
468  0  0   0   0   0  1  0
469  1  0   0   0   0  0  0
470  0 118   0   0   0  0  0
471  0  0   1   1   1  0  0
472  0  0   0   0   0  1  0
473  1  0   0   0   0  0  0
474  0 119   0   0   0  0  0
475  0  0   1   1   1  0  0
476  0  0   0   0   0  1  0
477  1  0   0   0   0  0  0
478  0 120   0   0   0  0  0
479  0  0   1   1   1  0  0
480  0  0   0   0   0  1  0
481  1  0   0   0   0  0  0
482  0 121   0   0   0  0  0
483  0  0   1   1   1  0  0
484  0  0   0   0   0  1  0
485  1  0   0   0   0  0  0
486  0 122   0   0   0  0  0
487  0  0   1   1   1  0  0
488  0  0   0   0   0  1  0

# Format of RF events:
# id amplitude mag_id phase_id delay freq phase
# ..        Hz   ....     ....    us   Hz   rad
[RF]
1      85.1528 1 2 100 -199258 0
2      85.1528 1 2 100 -1915.94 0
3      85.1528 1 2 100 -1884.01 0
4      85.1528 1 2 100 -1852.07 0
5      85.1528 1 2 100 -1820.14 0
6      85.1528 1 2 100 -1788.21 0
7      85.1528 1 2 100 -1756.28 0
8      85.1528 1 2 100 -1724.34 0
9      85.1528 1 2 100 -1692.41 0
10      85.1528 1 2 100 -1660.48 0
11      85.1528 1 2 100 -1628.55 0
12      85.1528 1 2 100 -1596.62 0
13      85.1528 1 2 100 -1564.68 0
14      85.1528 1 2 100 -1532.75 0
15      85.1528 1 2 100 -1500.82 0
16      85.1528 1 2 100 -1468.89 0
17      85.1528 1 2 100 -1436.95 0
18      85.1528 1 2 100 -1405.02 0
19      85.1528 1 2 100 -1373.09 0
20      85.1528 1 2 100 -1341.16 0
21      85.1528 1 2 100 -1309.22 0
22      85.1528 1 2 100 -1277.29 0
23      85.1528 1 2 100 -1245.36 0
24      85.1528 1 2 100 -1213.43 0
25      85.1528 1 2 100 -1181.5 0
26      85.1528 1 2 100 -1149.56 0
27      85.1528 1 2 100 -1117.63 0
28      85.1528 1 2 100 -1085.7 0
29      85.1528 1 2 100 -1053.77 0
30      85.1528 1 2 100 -1021.83 0
31      85.1528 1 2 100 -989.901 0
32      85.1528 1 2 100 -957.969 0
33      85.1528 1 2 100 -926.037 0
34      85.1528 1 2 100 -894.104 0
35      85.1528 1 2 100 -862.172 0
36      85.1528 1 2 100 -830.24 0
37      85.1528 1 2 100 -798.308 0
38      85.1528 1 2 100 -766.375 0
39      85.1528 1 2 100 -734.443 0
40      85.1528 1 2 100 -702.511 0
41      85.1528 1 2 100 -670.578 0
42      85.1528 1 2 100 -638.646 0
43      85.1528 1 2 100 -606.714 0
44      85.1528 1 2 100 -574.781 0
45      85.1528 1 2 100 -542.849 0
46      85.1528 1 2 100 -510.917 0
47      85.1528 1 2 100 -478.984 0
48      85.1528 1 2 100 -447.052 0
49      85.1528 1 2 100 -415.12 0
50      85.1528 1 2 100 -383.188 0
51      85.1528 1 2 100 -351.255 0
52      85.1528 1 2 100 -319.323 0
53      85.1528 1 2 100 -287.391 0
54      85.1528 1 2 100 -255.458 0
55      85.1528 1 2 100 -223.526 0
56      85.1528 1 2 100 -191.594 0
57      85.1528 1 2 100 -159.661 0
58      85.1528 1 2 100 -127.729 0
59      85.1528 1 2 100 -95.7969 0
60      85.1528 1 2 100 -63.8646 0
61      85.1528 1 2 100 -31.9323 0
62      85.1528 1 2 100 0 0
63      85.1528 1 2 100 31.9323 0
64      85.1528 1 2 100 63.8646 0
65      85.1528 1 2 100 95.7969 0
66      85.1528 1 2 100 127.729 0
67      85.1528 1 2 100 159.661 0
68      85.1528 1 2 100 191.594 0
69      85.1528 1 2 100 223.526 0
70      85.1528 1 2 100 255.458 0
71      85.1528 1 2 100 287.391 0
72      85.1528 1 2 100 319.323 0
73      85.1528 1 2 100 351.255 0
74      85.1528 1 2 100 383.188 0
75      85.1528 1 2 100 415.12 0
76      85.1528 1 2 100 447.052 0
77      85.1528 1 2 100 478.984 0
78      85.1528 1 2 100 510.917 0
79      85.1528 1 2 100 542.849 0
80      85.1528 1 2 100 574.781 0
81      85.1528 1 2 100 606.714 0
82      85.1528 1 2 100 638.646 0
83      85.1528 1 2 100 670.578 0
84      85.1528 1 2 100 702.511 0
85      85.1528 1 2 100 734.443 0
86      85.1528 1 2 100 766.375 0
87      85.1528 1 2 100 798.308 0
88      85.1528 1 2 100 830.24 0
89      85.1528 1 2 100 862.172 0
90      85.1528 1 2 100 894.104 0
91      85.1528 1 2 100 926.037 0
92      85.1528 1 2 100 957.969 0
93      85.1528 1 2 100 989.901 0
94      85.1528 1 2 100 1021.83 0
95      85.1528 1 2 100 1053.77 0
96      85.1528 1 2 100 1085.7 0
97      85.1528 1 2 100 1117.63 0
98      85.1528 1 2 100 1149.56 0
99      85.1528 1 2 100 1181.5 0
100      85.1528 1 2 100 1213.43 0
101      85.1528 1 2 100 1245.36 0
102      85.1528 1 2 100 1277.29 0
103      85.1528 1 2 100 1309.22 0
104      85.1528 1 2 100 1341.16 0
105      85.1528 1 2 100 1373.09 0
106      85.1528 1 2 100 1405.02 0
107      85.1528 1 2 100 1436.95 0
108      85.1528 1 2 100 1468.89 0
109      85.1528 1 2 100 1500.82 0
110      85.1528 1 2 100 1532.75 0
111      85.1528 1 2 100 1564.68 0
112      85.1528 1 2 100 1596.62 0
113      85.1528 1 2 100 1628.55 0
114      85.1528 1 2 100 1660.48 0
115      85.1528 1 2 100 1692.41 0
116      85.1528 1 2 100 1724.34 0
117      85.1528 1 2 100 1756.28 0
118      85.1528 1 2 100 1788.21 0
119      85.1528 1 2 100 1820.14 0
120      85.1528 1 2 100 1852.07 0
121      85.1528 1 2 100 1884.01 0
122      85.1528 1 2 100 1915.94 0

# Format of trapezoid gradients:
# id amplitude rise flat fall delay
# ..      Hz/m   us   us   us    us
[TRAP]
 1  1.36243e+06 1000 4500 1000   0

# Format of ADC events:
# id num dwell delay freq phase
# ..  ..    ns    us   Hz   rad
[ADC]
1 1 1000000 0 0 0

# Format of delays:
# id delay (us)
[DELAYS]
1 3500000

# Sequence Shapes
[SHAPES]

shape_id 1
num_samples 2000030
1
0
0
1999997
-1
0
0
27

shape_id 2
num_samples 2000030
0
0
2000028

